# === DATA DESCRIPTION FILE ======================================================
#
# CAUTION - Investigational device.
# Limited by Federal Law to investigational use.
#
# Dataset name: e:\dicom\\IRC317H-2_AX_SWIP_MPR_14_2
#
# CLINICAL TRYOUT             Research image export tool     V4.2
#
# === GENERAL INFORMATION ========================================================
#
.    Patient name                       :   IRC317H-2
.    Examination name                   :   IRC317H
.    Protocol name                      :   AX SWIP MPR
.    Examination date/time              :   2018.04.19 / 09:38:14
.    Series Type                        :   Image   MRSERIES
.    Acquisition nr                     :   14
.    Reconstruction nr                  :   2
.    Scan Duration [sec]                :   242
.    Max. number of cardiac phases      :   1
.    Max. number of echoes              :   4
.    Max. number of slices/locations    :   50
.    Max. number of dynamics            :   1
.    Max. number of mixes               :   1
.    Patient position                   :   Head First Supine
.    Preparation direction              :   Right-Left
.    Technique                          :   T1FFE
.    Scan resolution  (x, y)            :   368  366
.    Scan mode                          :   3D
.    Repetition time [ms]               :   29.371  
.    FOV (ap,fh,rl) [mm]                :   220.000  168.400  220.000
.    Water Fat shift [pixels]           :   1.701
.    Angulation midslice(ap,fh,rl)[degr]:   1.175  -4.967  0.552
.    Off Centre midslice(ap,fh,rl) [mm] :   -6.719  24.715  -3.628
.    Flow compensation <0=no 1=yes> ?   :   1
.    Presaturation     <0=no 1=yes> ?   :   0
.    Phase encoding velocity [cm/sec]   :   0.000000  0.000000  0.000000
.    MTC               <0=no 1=yes> ?   :   0
.    SPIR              <0=no 1=yes> ?   :   0
.    EPI factor        <0,1=no EPI>     :   1
.    Dynamic scan      <0=no 1=yes> ?   :   0
.    Diffusion         <0=no 1=yes> ?   :   0
.    Diffusion echo time [ms]           :   0.0000
.    Max. number of diffusion values    :   1
.    Max. number of gradient orients    :   1
.    Number of label types   <0=no ASL> :   0
#
# === PIXEL VALUES =============================================================
#  PV = pixel value in REC file, FP = floating point value, DV = displayed value on console
#  RS = rescale slope,           RI = rescale intercept,    SS = scale slope
#  DV = PV * RS + RI             FP = DV / (RS * SS)
#
# === IMAGE INFORMATION DEFINITION =============================================
#  The rest of this file contains ONE line per image, this line contains the following information:
#
#  slice number                             (integer)
#  echo number                              (integer)
#  dynamic scan number                      (integer)
#  cardiac phase number                     (integer)
#  image_type_mr                            (integer)
#  scanning sequence                        (integer)
#  index in REC file (in images)            (integer)
#  image pixel size (in bits)               (integer)
#  scan percentage                          (integer)
#  recon resolution (x y)                   (2*integer)
#  rescale intercept                        (float)
#  rescale slope                            (float)
#  scale slope                              (float)
#  window center                            (integer)
#  window width                             (integer)
#  image angulation (ap,fh,rl in degrees )  (3*float)
#  image offcentre (ap,fh,rl in mm )        (3*float)
#  slice thickness (in mm )                 (float)
#  slice gap (in mm )                       (float)
#  image_display_orientation                (integer)
#  slice orientation ( TRA/SAG/COR )        (integer)
#  fmri_status_indication                   (integer)
#  image_type_ed_es  (end diast/end syst)   (integer)
#  pixel spacing (x,y) (in mm)              (2*float)
#  echo_time                                (float)
#  dyn_scan_begin_time                      (float)
#  trigger_time                             (float)
#  diffusion_b_factor                       (float)
#  number of averages                       (integer)
#  image_flip_angle (in degrees)            (float)
#  cardiac frequency   (bpm)                (integer)
#  minimum RR-interval (in ms)              (integer)
#  maximum RR-interval (in ms)              (integer)
#  TURBO factor  <0=no turbo>               (integer)
#  Inversion delay (in ms)                  (float)
#  diffusion b value number    (imagekey!)  (integer)
#  gradient orientation number (imagekey!)  (integer)
#  contrast type                            (string)
#  diffusion anisotropy type                (string)
#  diffusion (ap, fh, rl)                   (3*float)
#  label type (ASL)            (imagekey!)  (integer)
#
# === IMAGE INFORMATION ==========================================================
#  sl ec  dyn ph ty    idx pix scan% rec size                (re)scale              window        angulation              offcentre        thick   gap   info      spacing     echo     dtime   ttime    diff  avg  flip    freq   RR-int  turbo delay b grad cont anis         diffusion       L.ty

  1   1    1  1 -1 2     0  16    78  384  384     0.00000   6.30672 1.00623e-002  1109  1840   1.17  -4.97   0.55   -6.02  -47.89   -5.12 13.168 -10.000 0 1 0 2  0.573  0.573   0.00    0.00     0.00    0.00   1   17.00     0    0    0     4   0.0  1   1    7    0   0.000    0.000    0.000  1
  2   1    1  1 -1 2     1  16    78  384  384     0.00000   6.30672 1.00623e-002  1109  1840   1.17  -4.97   0.55   -6.05  -44.72   -5.05 13.168 -10.000 0 1 0 2  0.573  0.573   0.00    0.00     0.00    0.00   1   17.00     0    0    0     4   0.0  1   1    7    0   0.000    0.000    0.000  1
  3   1    1  1 -1 2     2  16    78  384  384     0.00000   6.30672 1.00623e-002  1109  1840   1.17  -4.97   0.55   -6.08  -41.56   -4.99 13.168 -10.000 0 1 0 2  0.573  0.573   0.00    0.00     0.00    0.00   1   17.00     0    0    0     4   0.0  1   1    7    0   0.000    0.000    0.000  1
  4   1    1  1 -1 2     3  16    78  384  384     0.00000   6.30672 1.00623e-002  1109  1840   1.17  -4.97   0.55   -6.11  -38.39   -4.92 13.168 -10.000 0 1 0 2  0.573  0.573   0.00    0.00     0.00    0.00   1   17.00     0    0    0     4   0.0  1   1    7    0   0.000    0.000    0.000  1
  5   1    1  1 -1 2     4  16    78  384  384     0.00000   6.30672 1.00623e-002  1109  1840   1.17  -4.97   0.55   -6.14  -35.22   -4.86 13.168 -10.000 0 1 0 2  0.573  0.573   0.00    0.00     0.00    0.00   1   17.00     0    0    0     4   0.0  1   1    7    0   0.000    0.000    0.000  1
  6   1    1  1 -1 2     5  16    78  384  384     0.00000   6.30672 1.00623e-002  1109  1840   1.17  -4.97   0.55   -6.17  -32.05   -4.79 13.168 -10.000 0 1 0 2  0.573  0.573   0.00    0.00     0.00    0.00   1   17.00     0    0    0     4   0.0  1   1    7    0   0.000    0.000    0.000  1
  7   1    1  1 -1 2     6  16    78  384  384     0.00000   6.30672 1.00623e-002  1109  1840   1.17  -4.97   0.55   -6.20  -28.89   -4.73 13.168 -10.000 0 1 0 2  0.573  0.573   0.00    0.00     0.00    0.00   1   17.00     0    0    0     4   0.0  1   1    7    0   0.000    0.000    0.000  1
  8   1    1  1 -1 2     7  16    78  384  384     0.00000   6.30672 1.00623e-002  1109  1840   1.17  -4.97   0.55   -6.23  -25.72   -4.66 13.168 -10.000 0 1 0 2  0.573  0.573   0.00    0.00     0.00    0.00   1   17.00     0    0    0     4   0.0  1   1    7    0   0.000    0.000    0.000  1
  9   1    1  1 -1 2     8  16    78  384  384     0.00000   6.30672 1.00623e-002  1109  1840   1.17  -4.97   0.55   -6.26  -22.55   -4.60 13.168 -10.000 0 1 0 2  0.573  0.573   0.00    0.00     0.00    0.00   1   17.00     0    0    0     4   0.0  1   1    7    0   0.000    0.000    0.000  1
 10   1    1  1 -1 2     9  16    78  384  384     0.00000   6.30672 1.00623e-002  1109  1840   1.17  -4.97   0.55   -6.29  -19.39   -4.53 13.168 -10.000 0 1 0 2  0.573  0.573   0.00    0.00     0.00    0.00   1   17.00     0    0    0     4   0.0  1   1    7    0   0.000    0.000    0.000  1
 11   1    1  1 -1 2    10  16    78  384  384     0.00000   6.30672 1.00623e-002  1109  1840   1.17  -4.97   0.55   -6.32  -16.22   -4.47 13.168 -10.000 0 1 0 2  0.573  0.573   0.00    0.00     0.00    0.00   1   17.00     0    0    0     4   0.0  1   1    7    0   0.000    0.000    0.000  1
 12   1    1  1 -1 2    11  16    78  384  384     0.00000   6.30672 1.00623e-002  1109  1840   1.17  -4.97   0.55   -6.35  -13.05   -4.40 13.168 -10.000 0 1 0 2  0.573  0.573   0.00    0.00     0.00    0.00   1   17.00     0    0    0     4   0.0  1   1    7    0   0.000    0.000    0.000  1
 13   1    1  1 -1 2    12  16    78  384  384     0.00000   6.30672 1.00623e-002  1109  1840   1.17  -4.97   0.55   -6.39   -9.88   -4.34 13.168 -10.000 0 1 0 2  0.573  0.573   0.00    0.00     0.00    0.00   1   17.00     0    0    0     4   0.0  1   1    7    0   0.000    0.000    0.000  1
 14   1    1  1 -1 2    13  16    78  384  384     0.00000   6.30672 1.00623e-002  1109  1840   1.17  -4.97   0.55   -6.42   -6.72   -4.27 13.168 -10.000 0 1 0 2  0.573  0.573   0.00    0.00     0.00    0.00   1   17.00     0    0    0     4   0.0  1   1    7    0   0.000    0.000    0.000  1
 15   1    1  1 -1 2    14  16    78  384  384     0.00000   6.30672 1.00623e-002  1109  1840   1.17  -4.97   0.55   -6.45   -3.55   -4.21 13.168 -10.000 0 1 0 2  0.573  0.573   0.00    0.00     0.00    0.00   1   17.00     0    0    0     4   0.0  1   1    7    0   0.000    0.000    0.000  1
 16   1    1  1 -1 2    15  16    78  384  384     0.00000   6.30672 1.00623e-002  1109  1840   1.17  -4.97   0.55   -6.48   -0.38   -4.14 13.168 -10.000 0 1 0 2  0.573  0.573   0.00    0.00     0.00    0.00   1   17.00     0    0    0     4   0.0  1   1    7    0   0.000    0.000    0.000  1
 17   1    1  1 -1 2    16  16    78  384  384     0.00000   6.30672 1.00623e-002  1109  1840   1.17  -4.97   0.55   -6.51    2.78   -4.08 13.168 -10.000 0 1 0 2  0.573  0.573   0.00    0.00     0.00    0.00   1   17.00     0    0    0     4   0.0  1   1    7    0   0.000    0.000    0.000  1
 18   1    1  1 -1 2    17  16    78  384  384     0.00000   6.30672 1.00623e-002  1109  1840   1.17  -4.97   0.55   -6.54    5.95   -4.01 13.168 -10.000 0 1 0 2  0.573  0.573   0.00    0.00     0.00    0.00   1   17.00     0    0    0     4   0.0  1   1    7    0   0.000    0.000    0.000  1
 19   1    1  1 -1 2    18  16    78  384  384     0.00000   6.30672 1.00623e-002  1109  1840   1.17  -4.97   0.55   -6.57    9.12   -3.95 13.168 -10.000 0 1 0 2  0.573  0.573   0.00    0.00     0.00    0.00   1   17.00     0    0    0     4   0.0  1   1    7    0   0.000    0.000    0.000  1
 20   1    1  1 -1 2    19  16    78  384  384     0.00000   6.30672 1.00623e-002  1109  1840   1.17  -4.97   0.55   -6.60   12.29   -3.88 13.168 -10.000 0 1 0 2  0.573  0.573   0.00    0.00     0.00    0.00   1   17.00     0    0    0     4   0.0  1   1    7    0   0.000    0.000    0.000  1
 21   1    1  1 -1 2    20  16    78  384  384     0.00000   6.30672 1.00623e-002  1109  1840   1.17  -4.97   0.55   -6.63   15.45   -3.82 13.168 -10.000 0 1 0 2  0.573  0.573   0.00    0.00     0.00    0.00   1   17.00     0    0    0     4   0.0  1   1    7    0   0.000    0.000    0.000  1
 22   1    1  1 -1 2    21  16    78  384  384     0.00000   6.30672 1.00623e-002  1109  1840   1.17  -4.97   0.55   -6.66   18.62   -3.75 13.168 -10.000 0 1 0 2  0.573  0.573   0.00    0.00     0.00    0.00   1   17.00     0    0    0     4   0.0  1   1    7    0   0.000    0.000    0.000  1
 23   1    1  1 -1 2    22  16    78  384  384     0.00000   6.30672 1.00623e-002  1109  1840   1.17  -4.97   0.55   -6.69   21.79   -3.69 13.168 -10.000 0 1 0 2  0.573  0.573   0.00    0.00     0.00    0.00   1   17.00     0    0    0     4   0.0  1   1    7    0   0.000    0.000    0.000  1
 24   1    1  1 -1 2    23  16    78  384  384     0.00000   6.30672 1.00623e-002  1109  1840   1.17  -4.97   0.55   -6.72   24.95   -3.62 13.168 -10.000 0 1 0 2  0.573  0.573   0.00    0.00     0.00    0.00   1   17.00     0    0    0     4   0.0  1   1    7    0   0.000    0.000    0.000  1
 25   1    1  1 -1 2    24  16    78  384  384     0.00000   6.30672 1.00623e-002  1109  1840   1.17  -4.97   0.55   -6.75   28.12   -3.56 13.168 -10.000 0 1 0 2  0.573  0.573   0.00    0.00     0.00    0.00   1   17.00     0    0    0     4   0.0  1   1    7    0   0.000    0.000    0.000  1
 26   1    1  1 -1 2    25  16    78  384  384     0.00000   6.30672 1.00623e-002  1109  1840   1.17  -4.97   0.55   -6.78   31.29   -3.49 13.168 -10.000 0 1 0 2  0.573  0.573   0.00    0.00     0.00    0.00   1   17.00     0    0    0     4   0.0  1   1    7    0   0.000    0.000    0.000  1
 27   1    1  1 -1 2    26  16    78  384  384     0.00000   6.30672 1.00623e-002  1109  1840   1.17  -4.97   0.55   -6.81   34.46   -3.43 13.168 -10.000 0 1 0 2  0.573  0.573   0.00    0.00     0.00    0.00   1   17.00     0    0    0     4   0.0  1   1    7    0   0.000    0.000    0.000  1
 28   1    1  1 -1 2    27  16    78  384  384     0.00000   6.30672 1.00623e-002  1109  1840   1.17  -4.97   0.55   -6.84   37.62   -3.36 13.168 -10.000 0 1 0 2  0.573  0.573   0.00    0.00     0.00    0.00   1   17.00     0    0    0     4   0.0  1   1    7    0   0.000    0.000    0.000  1
 29   1    1  1 -1 2    28  16    78  384  384     0.00000   6.30672 1.00623e-002  1109  1840   1.17  -4.97   0.55   -6.87   40.79   -3.30 13.168 -10.000 0 1 0 2  0.573  0.573   0.00    0.00     0.00    0.00   1   17.00     0    0    0     4   0.0  1   1    7    0   0.000    0.000    0.000  1
 30   1    1  1 -1 2    29  16    78  384  384     0.00000   6.30672 1.00623e-002  1109  1840   1.17  -4.97   0.55   -6.90   43.96   -3.23 13.168 -10.000 0 1 0 2  0.573  0.573   0.00    0.00     0.00    0.00   1   17.00     0    0    0     4   0.0  1   1    7    0   0.000    0.000    0.000  1
 31   1    1  1 -1 2    30  16    78  384  384     0.00000   6.30672 1.00623e-002  1109  1840   1.17  -4.97   0.55   -6.93   47.12   -3.17 13.168 -10.000 0 1 0 2  0.573  0.573   0.00    0.00     0.00    0.00   1   17.00     0    0    0     4   0.0  1   1    7    0   0.000    0.000    0.000  1
 32   1    1  1 -1 2    31  16    78  384  384     0.00000   6.30672 1.00623e-002  1109  1840   1.17  -4.97   0.55   -6.97   50.29   -3.10 13.168 -10.000 0 1 0 2  0.573  0.573   0.00    0.00     0.00    0.00   1   17.00     0    0    0     4   0.0  1   1    7    0   0.000    0.000    0.000  1
 33   1    1  1 -1 2    32  16    78  384  384     0.00000   6.30672 1.00623e-002  1109  1840   1.17  -4.97   0.55   -7.00   53.46   -3.04 13.168 -10.000 0 1 0 2  0.573  0.573   0.00    0.00     0.00    0.00   1   17.00     0    0    0     4   0.0  1   1    7    0   0.000    0.000    0.000  1
 34   1    1  1 -1 2    33  16    78  384  384     0.00000   6.30672 1.00623e-002  1109  1840   1.17  -4.97   0.55   -7.03   56.63   -2.97 13.168 -10.000 0 1 0 2  0.573  0.573   0.00    0.00     0.00    0.00   1   17.00     0    0    0     4   0.0  1   1    7    0   0.000    0.000    0.000  1
 35   1    1  1 -1 2    34  16    78  384  384     0.00000   6.30672 1.00623e-002  1109  1840   1.17  -4.97   0.55   -7.06   59.79   -2.91 13.168 -10.000 0 1 0 2  0.573  0.573   0.00    0.00     0.00    0.00   1   17.00     0    0    0     4   0.0  1   1    7    0   0.000    0.000    0.000  1
 36   1    1  1 -1 2    35  16    78  384  384     0.00000   6.30672 1.00623e-002  1109  1840   1.17  -4.97   0.55   -7.09   62.96   -2.84 13.168 -10.000 0 1 0 2  0.573  0.573   0.00    0.00     0.00    0.00   1   17.00     0    0    0     4   0.0  1   1    7    0   0.000    0.000    0.000  1
 37   1    1  1 -1 2    36  16    78  384  384     0.00000   6.30672 1.00623e-002  1109  1840   1.17  -4.97   0.55   -7.12   66.13   -2.78 13.168 -10.000 0 1 0 2  0.573  0.573   0.00    0.00     0.00    0.00   1   17.00     0    0    0     4   0.0  1   1    7    0   0.000    0.000    0.000  1
 38   1    1  1 -1 2    37  16    78  384  384     0.00000   6.30672 1.00623e-002  1109  1840   1.17  -4.97   0.55   -7.15   69.30   -2.71 13.168 -10.000 0 1 0 2  0.573  0.573   0.00    0.00     0.00    0.00   1   17.00     0    0    0     4   0.0  1   1    7    0   0.000    0.000    0.000  1
 39   1    1  1 -1 2    38  16    78  384  384     0.00000   6.30672 1.00623e-002  1109  1840   1.17  -4.97   0.55   -7.18   72.46   -2.65 13.168 -10.000 0 1 0 2  0.573  0.573   0.00    0.00     0.00    0.00   1   17.00     0    0    0     4   0.0  1   1    7    0   0.000    0.000    0.000  1
 40   1    1  1 -1 2    39  16    78  384  384     0.00000   6.30672 1.00623e-002  1109  1840   1.17  -4.97   0.55   -7.21   75.63   -2.58 13.168 -10.000 0 1 0 2  0.573  0.573   0.00    0.00     0.00    0.00   1   17.00     0    0    0     4   0.0  1   1    7    0   0.000    0.000    0.000  1
 41   1    1  1 -1 2    40  16    78  384  384     0.00000   6.30672 1.00623e-002  1109  1840   1.17  -4.97   0.55   -7.24   78.80   -2.52 13.168 -10.000 0 1 0 2  0.573  0.573   0.00    0.00     0.00    0.00   1   17.00     0    0    0     4   0.0  1   1    7    0   0.000    0.000    0.000  1
 42   1    1  1 -1 2    41  16    78  384  384     0.00000   6.30672 1.00623e-002  1109  1840   1.17  -4.97   0.55   -7.27   81.96   -2.45 13.168 -10.000 0 1 0 2  0.573  0.573   0.00    0.00     0.00    0.00   1   17.00     0    0    0     4   0.0  1   1    7    0   0.000    0.000    0.000  1
 43   1    1  1 -1 2    42  16    78  384  384     0.00000   6.30672 1.00623e-002  1109  1840   1.17  -4.97   0.55   -7.30   85.13   -2.39 13.168 -10.000 0 1 0 2  0.573  0.573   0.00    0.00     0.00    0.00   1   17.00     0    0    0     4   0.0  1   1    7    0   0.000    0.000    0.000  1
 44   1    1  1 -1 2    43  16    78  384  384     0.00000   6.30672 1.00623e-002  1109  1840   1.17  -4.97   0.55   -7.33   88.30   -2.32 13.168 -10.000 0 1 0 2  0.573  0.573   0.00    0.00     0.00    0.00   1   17.00     0    0    0     4   0.0  1   1    7    0   0.000    0.000    0.000  1
 45   1    1  1 -1 2    44  16    78  384  384     0.00000   6.30672 1.00623e-002  1109  1840   1.17  -4.97   0.55   -7.36   91.47   -2.26 13.168 -10.000 0 1 0 2  0.573  0.573   0.00    0.00     0.00    0.00   1   17.00     0    0    0     4   0.0  1   1    7    0   0.000    0.000    0.000  1
 46   1    1  1 -1 2    45  16    78  384  384     0.00000   6.30672 1.00623e-002  1109  1840   1.17  -4.97   0.55   -7.39   94.63   -2.19 13.168 -10.000 0 1 0 2  0.573  0.573   0.00    0.00     0.00    0.00   1   17.00     0    0    0     4   0.0  1   1    7    0   0.000    0.000    0.000  1
 47   1    1  1 -1 2    46  16    78  384  384     0.00000   6.30672 1.00623e-002  1109  1840   1.17  -4.97   0.55   -7.42   97.80   -2.13 13.168 -10.000 0 1 0 2  0.573  0.573   0.00    0.00     0.00    0.00   1   17.00     0    0    0     4   0.0  1   1    7    0   0.000    0.000    0.000  1
 48   1    1  1 -1 2    47  16    78  384  384     0.00000   6.30672 1.00623e-002  1109  1840   1.17  -4.97   0.55   -7.45  100.97   -2.06 13.168 -10.000 0 1 0 2  0.573  0.573   0.00    0.00     0.00    0.00   1   17.00     0    0    0     4   0.0  1   1    7    0   0.000    0.000    0.000  1
 49   1    1  1 -1 2    48  16    78  384  384     0.00000   6.30672 1.00623e-002  1109  1840   1.17  -4.97   0.55   -7.48  104.13   -2.00 13.168 -10.000 0 1 0 2  0.573  0.573   0.00    0.00     0.00    0.00   1   17.00     0    0    0     4   0.0  1   1    7    0   0.000    0.000    0.000  1
 50   1    1  1 -1 2    49  16    78  384  384     0.00000   6.30672 1.00623e-002  1109  1840   1.17  -4.97   0.55   -7.51  107.30   -1.93 13.168 -10.000 0 1 0 2  0.573  0.573   0.00    0.00     0.00    0.00   1   17.00     0    0    0     4   0.0  1   1    7    0   0.000    0.000    0.000  1

# === END OF DATA DESCRIPTION FILE ===============================================
