# === DATA DESCRIPTION FILE ======================================================
#
# CAUTION - Investigational device.
# Limited by Federal Law to investigational use.
#
# Dataset name: e:\dicom\\TestData_B0_MB4_SENSE_1.3
#
# CLINICAL TRYOUT             Research image export tool     V4.2
#
# === GENERAL INFORMATION ========================================================
#
.    Patient name                       :   TestData
.    Examination name                   :   Protocol
.    Protocol name                      :   B0 MB4 SENSE 1.3
.    Examination date/time              :   2018.04.19 / 09:38:14
.    Series Type                        :   Image   MRSERIES
.    Acquisition nr                     :   8
.    Reconstruction nr                  :   1
.    Scan Duration [sec]                :   15
.    Max. number of cardiac phases      :   1
.    Max. number of echoes              :   1
.    Max. number of slices/locations    :   84
.    Max. number of dynamics            :   1
.    Max. number of mixes               :   1
.    Patient position                   :   Head First Supine
.    Preparation direction              :   Anterior-Posterior
.    Technique                          :   DwiSE
.    Scan resolution  (x, y)            :   96  92
.    Scan mode                          :   MS
.    Repetition time [ms]               :   4999.999  
.    FOV (ap,fh,rl) [mm]                :   160.000  142.800  160.000
.    Water Fat shift [pixels]           :   31.376
.    Angulation midslice(ap,fh,rl)[degr]:   0.000  0.000  0.000
.    Off Centre midslice(ap,fh,rl) [mm] :   -6.719  24.715  -3.628
.    Flow compensation <0=no 1=yes> ?   :   0
.    Presaturation     <0=no 1=yes> ?   :   0
.    Phase encoding velocity [cm/sec]   :   0.000000  0.000000  0.000000
.    MTC               <0=no 1=yes> ?   :   0
.    SPIR              <0=no 1=yes> ?   :   1
.    EPI factor        <0,1=no EPI>     :   71
.    Dynamic scan      <0=no 1=yes> ?   :   0
.    Diffusion         <0=no 1=yes> ?   :   1
.    Diffusion echo time [ms]           :   0.0000
.    Max. number of diffusion values    :   1
.    Max. number of gradient orients    :   7
.    Number of label types   <0=no ASL> :   0
#
# === PIXEL VALUES =============================================================
#  PV = pixel value in REC file, FP = floating point value, DV = displayed value on console
#  RS = rescale slope,           RI = rescale intercept,    SS = scale slope
#  DV = PV * RS + RI             FP = DV / (RS * SS)
#
# === IMAGE INFORMATION DEFINITION =============================================
#  The rest of this file contains ONE line per image, this line contains the following information:
#
#  slice number                             (integer)
#  echo number                              (integer)
#  dynamic scan number                      (integer)
#  cardiac phase number                     (integer)
#  image_type_mr                            (integer)
#  scanning sequence                        (integer)
#  index in REC file (in images)            (integer)
#  image pixel size (in bits)               (integer)
#  scan percentage                          (integer)
#  recon resolution (x y)                   (2*integer)
#  rescale intercept                        (float)
#  rescale slope                            (float)
#  scale slope                              (float)
#  window center                            (integer)
#  window width                             (integer)
#  image angulation (ap,fh,rl in degrees )  (3*float)
#  image offcentre (ap,fh,rl in mm )        (3*float)
#  slice thickness (in mm )                 (float)
#  slice gap (in mm )                       (float)
#  image_display_orientation                (integer)
#  slice orientation ( TRA/SAG/COR )        (integer)
#  fmri_status_indication                   (integer)
#  image_type_ed_es  (end diast/end syst)   (integer)
#  pixel spacing (x,y) (in mm)              (2*float)
#  echo_time                                (float)
#  dyn_scan_begin_time                      (float)
#  trigger_time                             (float)
#  diffusion_b_factor                       (float)
#  number of averages                       (integer)
#  image_flip_angle (in degrees)            (float)
#  cardiac frequency   (bpm)                (integer)
#  minimum RR-interval (in ms)              (integer)
#  maximum RR-interval (in ms)              (integer)
#  TURBO factor  <0=no turbo>               (integer)
#  Inversion delay (in ms)                  (float)
#  diffusion b value number    (imagekey!)  (integer)
#  gradient orientation number (imagekey!)  (integer)
#  contrast type                            (string)
#  diffusion anisotropy type                (string)
#  diffusion (ap, fh, rl)                   (3*float)
#  label type (ASL)            (imagekey!)  (integer)
#
# === IMAGE INFORMATION ==========================================================
#  sl ec  dyn ph ty    idx pix scan% rec size                (re)scale              window        angulation              offcentre        thick   gap   info      spacing     echo     dtime   ttime    diff  avg  flip    freq   RR-int  turbo delay b grad cont anis         diffusion       L.ty

  1   1    1  1 0 1     0  16    97   96   96     0.00000   4.76532 1.84723e-002   530   921   0.00  -0.00  -0.00   -6.72  -45.84   -3.63  1.700  0.000 0 1 0 2  1.667  1.667  93.00    0.00     0.00    0.00   1   90.00     0    0    0    71   0.0  1   7    0    0   0.000    0.000    0.000  1
  2   1    1  1 0 1     1  16    97   96   96     0.00000   4.76532 1.84723e-002   375   653   0.00  -0.00  -0.00   -6.72  -44.14   -3.63  1.700  0.000 0 1 0 2  1.667  1.667  93.00    0.00     0.00    0.00   1   90.00     0    0    0    71   0.0  1   7    0    0   0.000    0.000    0.000  1
  3   1    1  1 0 1     2  16    97   96   96     0.00000   4.76532 1.84723e-002   582  1012   0.00  -0.00  -0.00   -6.72  -42.44   -3.63  1.700  0.000 0 1 0 2  1.667  1.667  93.00    0.00     0.00    0.00   1   90.00     0    0    0    71   0.0  1   7    0    0   0.000    0.000    0.000  1
  4   1    1  1 0 1     3  16    97   96   96     0.00000   4.76532 1.84723e-002   504   875   0.00  -0.00  -0.00   -6.72  -40.74   -3.63  1.700  0.000 0 1 0 2  1.667  1.667  93.00    0.00     0.00    0.00   1   90.00     0    0    0    71   0.0  1   7    0    0   0.000    0.000    0.000  1
  5   1    1  1 0 1     4  16    97   96   96     0.00000   4.76532 1.84723e-002   564   980   0.00  -0.00  -0.00   -6.72  -39.04   -3.63  1.700  0.000 0 1 0 2  1.667  1.667  93.00    0.00     0.00    0.00   1   90.00     0    0    0    71   0.0  1   7    0    0   0.000    0.000    0.000  1
  6   1    1  1 0 1     5  16    97   96   96     0.00000   4.76532 1.84723e-002   508   884   0.00  -0.00  -0.00   -6.72  -37.34   -3.63  1.700  0.000 0 1 0 2  1.667  1.667  93.00    0.00     0.00    0.00   1   90.00     0    0    0    71   0.0  1   7    0    0   0.000    0.000    0.000  1
  7   1    1  1 0 1     6  16    97   96   96     0.00000   4.76532 1.84723e-002   465   808   0.00  -0.00  -0.00   -6.72  -35.64   -3.63  1.700  0.000 0 1 0 2  1.667  1.667  93.00    0.00     0.00    0.00   1   90.00     0    0    0    71   0.0  1   7    0    0   0.000    0.000    0.000  1
  8   1    1  1 0 1     7  16    97   96   96     0.00000   4.76532 1.84723e-002   524   910   0.00  -0.00  -0.00   -6.72  -33.94   -3.63  1.700  0.000 0 1 0 2  1.667  1.667  93.00    0.00     0.00    0.00   1   90.00     0    0    0    71   0.0  1   7    0    0   0.000    0.000    0.000  1
  9   1    1  1 0 1     8  16    97   96   96     0.00000   4.76532 1.84723e-002   532   926   0.00  -0.00  -0.00   -6.72  -32.24   -3.63  1.700  0.000 0 1 0 2  1.667  1.667  93.00    0.00     0.00    0.00   1   90.00     0    0    0    71   0.0  1   7    0    0   0.000    0.000    0.000  1
 10   1    1  1 0 1     9  16    97   96   96     0.00000   4.76532 1.84723e-002   497   863   0.00  -0.00  -0.00   -6.72  -30.54   -3.63  1.700  0.000 0 1 0 2  1.667  1.667  93.00    0.00     0.00    0.00   1   90.00     0    0    0    71   0.0  1   7    0    0   0.000    0.000    0.000  1
 11   1    1  1 0 1    10  16    97   96   96     0.00000   4.76532 1.84723e-002   439   763   0.00  -0.00  -0.00   -6.72  -28.84   -3.63  1.700  0.000 0 1 0 2  1.667  1.667  93.00    0.00     0.00    0.00   1   90.00     0    0    0    71   0.0  1   7    0    0   0.000    0.000    0.000  1
 12   1    1  1 0 1    11  16    97   96   96     0.00000   4.76532 1.84723e-002   614  1067   0.00  -0.00  -0.00   -6.72  -27.14   -3.63  1.700  0.000 0 1 0 2  1.667  1.667  93.00    0.00     0.00    0.00   1   90.00     0    0    0    71   0.0  1   7    0    0   0.000    0.000    0.000  1
 13   1    1  1 0 1    12  16    97   96   96     0.00000   4.76532 1.84723e-002   719  1251   0.00  -0.00  -0.00   -6.72  -25.44   -3.63  1.700  0.000 0 1 0 2  1.667  1.667  93.00    0.00     0.00    0.00   1   90.00     0    0    0    71   0.0  1   7    0    0   0.000    0.000    0.000  1
 14   1    1  1 0 1    13  16    97   96   96     0.00000   4.76532 1.84723e-002   868  1509   0.00  -0.00  -0.00   -6.72  -23.74   -3.63  1.700  0.000 0 1 0 2  1.667  1.667  93.00    0.00     0.00    0.00   1   90.00     0    0    0    71   0.0  1   7    0    0   0.000    0.000    0.000  1
 15   1    1  1 0 1    14  16    97   96   96     0.00000   4.76532 1.84723e-002   814  1415   0.00  -0.00  -0.00   -6.72  -22.04   -3.63  1.700  0.000 0 1 0 2  1.667  1.667  93.00    0.00     0.00    0.00   1   90.00     0    0    0    71   0.0  1   7    0    0   0.000    0.000    0.000  1
 16   1    1  1 0 1    15  16    97   96   96     0.00000   4.76532 1.84723e-002   828  1439   0.00  -0.00  -0.00   -6.72  -20.34   -3.63  1.700  0.000 0 1 0 2  1.667  1.667  93.00    0.00     0.00    0.00   1   90.00     0    0    0    71   0.0  1   7    0    0   0.000    0.000    0.000  1
 17   1    1  1 0 1    16  16    97   96   96     0.00000   4.76532 1.84723e-002   906  1575   0.00  -0.00  -0.00   -6.72  -18.64   -3.63  1.700  0.000 0 1 0 2  1.667  1.667  93.00    0.00     0.00    0.00   1   90.00     0    0    0    71   0.0  1   7    0    0   0.000    0.000    0.000  1
 18   1    1  1 0 1    17  16    97   96   96     0.00000   4.76532 1.84723e-002   859  1494   0.00  -0.00  -0.00   -6.72  -16.94   -3.63  1.700  0.000 0 1 0 2  1.667  1.667  93.00    0.00     0.00    0.00   1   90.00     0    0    0    71   0.0  1   7    0    0   0.000    0.000    0.000  1
 19   1    1  1 0 1    18  16    97   96   96     0.00000   4.76532 1.84723e-002   765  1330   0.00  -0.00  -0.00   -6.72  -15.24   -3.63  1.700  0.000 0 1 0 2  1.667  1.667  93.00    0.00     0.00    0.00   1   90.00     0    0    0    71   0.0  1   7    0    0   0.000    0.000    0.000  1
 20   1    1  1 0 1    19  16    97   96   96     0.00000   4.76532 1.84723e-002   906  1575   0.00  -0.00  -0.00   -6.72  -13.54   -3.63  1.700  0.000 0 1 0 2  1.667  1.667  93.00    0.00     0.00    0.00   1   90.00     0    0    0    71   0.0  1   7    0    0   0.000    0.000    0.000  1
 21   1    1  1 0 1    20  16    97   96   96     0.00000   4.76532 1.84723e-002   892  1550   0.00  -0.00  -0.00   -6.72  -11.84   -3.63  1.700  0.000 0 1 0 2  1.667  1.667  93.00    0.00     0.00    0.00   1   90.00     0    0    0    71   0.0  1   7    0    0   0.000    0.000    0.000  1
 22   1    1  1 0 1    21  16    97   96   96     0.00000   4.76532 1.84723e-002  1362  2368   0.00  -0.00  -0.00   -6.72  -10.14   -3.63  1.700  0.000 0 1 0 2  1.667  1.667  93.00    0.00     0.00    0.00   1   90.00     0    0    0    71   0.0  1   7    0    0   0.000    0.000    0.000  1
 23   1    1  1 0 1    22  16    97   96   96     0.00000   4.76532 1.84723e-002  1089  1894   0.00  -0.00  -0.00   -6.72   -8.44   -3.63  1.700  0.000 0 1 0 2  1.667  1.667  93.00    0.00     0.00    0.00   1   90.00     0    0    0    71   0.0  1   7    0    0   0.000    0.000    0.000  1
 24   1    1  1 0 1    23  16    97   96   96     0.00000   4.76532 1.84723e-002   962  1672   0.00  -0.00  -0.00   -6.72   -6.74   -3.63  1.700  0.000 0 1 0 2  1.667  1.667  93.00    0.00     0.00    0.00   1   90.00     0    0    0    71   0.0  1   7    0    0   0.000    0.000    0.000  1
 25   1    1  1 0 1    24  16    97   96   96     0.00000   4.76532 1.84723e-002  1125  1956   0.00  -0.00  -0.00   -6.72   -5.04   -3.63  1.700  0.000 0 1 0 2  1.667  1.667  93.00    0.00     0.00    0.00   1   90.00     0    0    0    71   0.0  1   7    0    0   0.000    0.000    0.000  1
 26   1    1  1 0 1    25  16    97   96   96     0.00000   4.76532 1.84723e-002   992  1724   0.00  -0.00  -0.00   -6.72   -3.34   -3.63  1.700  0.000 0 1 0 2  1.667  1.667  93.00    0.00     0.00    0.00   1   90.00     0    0    0    71   0.0  1   7    0    0   0.000    0.000    0.000  1
 27   1    1  1 0 1    26  16    97   96   96     0.00000   4.76532 1.84723e-002  1084  1884   0.00  -0.00  -0.00   -6.72   -1.64   -3.63  1.700  0.000 0 1 0 2  1.667  1.667  93.00    0.00     0.00    0.00   1   90.00     0    0    0    71   0.0  1   7    0    0   0.000    0.000    0.000  1
 28   1    1  1 0 1    27  16    97   96   96     0.00000   4.76532 1.84723e-002  1471  2557   0.00  -0.00  -0.00   -6.72    0.06   -3.63  1.700  0.000 0 1 0 2  1.667  1.667  93.00    0.00     0.00    0.00   1   90.00     0    0    0    71   0.0  1   7    0    0   0.000    0.000    0.000  1
 29   1    1  1 0 1    28  16    97   96   96     0.00000   4.76532 1.84723e-002  1159  2014   0.00  -0.00  -0.00   -6.72    1.76   -3.63  1.700  0.000 0 1 0 2  1.667  1.667  93.00    0.00     0.00    0.00   1   90.00     0    0    0    71   0.0  1   7    0    0   0.000    0.000    0.000  1
 30   1    1  1 0 1    29  16    97   96   96     0.00000   4.76532 1.84723e-002   925  1609   0.00  -0.00  -0.00   -6.72    3.46   -3.63  1.700  0.000 0 1 0 2  1.667  1.667  93.00    0.00     0.00    0.00   1   90.00     0    0    0    71   0.0  1   7    0    0   0.000    0.000    0.000  1
 31   1    1  1 0 1    30  16    97   96   96     0.00000   4.76532 1.84723e-002   710  1234   0.00  -0.00  -0.00   -6.72    5.16   -3.63  1.700  0.000 0 1 0 2  1.667  1.667  93.00    0.00     0.00    0.00   1   90.00     0    0    0    71   0.0  1   7    0    0   0.000    0.000    0.000  1
 32   1    1  1 0 1    31  16    97   96   96     0.00000   4.76532 1.84723e-002   717  1247   0.00  -0.00  -0.00   -6.72    6.86   -3.63  1.700  0.000 0 1 0 2  1.667  1.667  93.00    0.00     0.00    0.00   1   90.00     0    0    0    71   0.0  1   7    0    0   0.000    0.000    0.000  1
 33   1    1  1 0 1    32  16    97   96   96     0.00000   4.76532 1.84723e-002   704  1224   0.00  -0.00  -0.00   -6.72    8.56   -3.63  1.700  0.000 0 1 0 2  1.667  1.667  93.00    0.00     0.00    0.00   1   90.00     0    0    0    71   0.0  1   7    0    0   0.000    0.000    0.000  1
 34   1    1  1 0 1    33  16    97   96   96     0.00000   4.76532 1.84723e-002   644  1120   0.00  -0.00  -0.00   -6.72   10.26   -3.63  1.700  0.000 0 1 0 2  1.667  1.667  93.00    0.00     0.00    0.00   1   90.00     0    0    0    71   0.0  1   7    0    0   0.000    0.000    0.000  1
 35   1    1  1 0 1    34  16    97   96   96     0.00000   4.76532 1.84723e-002   676  1175   0.00  -0.00  -0.00   -6.72   11.96   -3.63  1.700  0.000 0 1 0 2  1.667  1.667  93.00    0.00     0.00    0.00   1   90.00     0    0    0    71   0.0  1   7    0    0   0.000    0.000    0.000  1
 36   1    1  1 0 1    35  16    97   96   96     0.00000   4.76532 1.84723e-002   774  1346   0.00  -0.00  -0.00   -6.72   13.66   -3.63  1.700  0.000 0 1 0 2  1.667  1.667  93.00    0.00     0.00    0.00   1   90.00     0    0    0    71   0.0  1   7    0    0   0.000    0.000    0.000  1
 37   1    1  1 0 1    36  16    97   96   96     0.00000   4.76532 1.84723e-002   893  1553   0.00  -0.00  -0.00   -6.72   15.36   -3.63  1.700  0.000 0 1 0 2  1.667  1.667  93.00    0.00     0.00    0.00   1   90.00     0    0    0    71   0.0  1   7    0    0   0.000    0.000    0.000  1
 38   1    1  1 0 1    37  16    97   96   96     0.00000   4.76532 1.84723e-002   898  1560   0.00  -0.00  -0.00   -6.72   17.06   -3.63  1.700  0.000 0 1 0 2  1.667  1.667  93.00    0.00     0.00    0.00   1   90.00     0    0    0    71   0.0  1   7    0    0   0.000    0.000    0.000  1
 39   1    1  1 0 1    38  16    97   96   96     0.00000   4.76532 1.84723e-002  1068  1856   0.00  -0.00  -0.00   -6.72   18.76   -3.63  1.700  0.000 0 1 0 2  1.667  1.667  93.00    0.00     0.00    0.00   1   90.00     0    0    0    71   0.0  1   7    0    0   0.000    0.000    0.000  1
 40   1    1  1 0 1    39  16    97   96   96     0.00000   4.76532 1.84723e-002   983  1709   0.00  -0.00  -0.00   -6.72   20.46   -3.63  1.700  0.000 0 1 0 2  1.667  1.667  93.00    0.00     0.00    0.00   1   90.00     0    0    0    71   0.0  1   7    0    0   0.000    0.000    0.000  1
 41   1    1  1 0 1    40  16    97   96   96     0.00000   4.76532 1.84723e-002   885  1539   0.00  -0.00  -0.00   -6.72   22.16   -3.63  1.700  0.000 0 1 0 2  1.667  1.667  93.00    0.00     0.00    0.00   1   90.00     0    0    0    71   0.0  1   7    0    0   0.000    0.000    0.000  1
 42   1    1  1 0 1    41  16    97   96   96     0.00000   4.76532 1.84723e-002   789  1372   0.00  -0.00  -0.00   -6.72   23.86   -3.63  1.700  0.000 0 1 0 2  1.667  1.667  93.00    0.00     0.00    0.00   1   90.00     0    0    0    71   0.0  1   7    0    0   0.000    0.000    0.000  1
 43   1    1  1 0 1    42  16    97   96   96     0.00000   4.76532 1.84723e-002  1070  1860   0.00  -0.00  -0.00   -6.72   25.56   -3.63  1.700  0.000 0 1 0 2  1.667  1.667  93.00    0.00     0.00    0.00   1   90.00     0    0    0    71   0.0  1   7    0    0   0.000    0.000    0.000  1
 44   1    1  1 0 1    43  16    97   96   96     0.00000   4.76532 1.84723e-002   825  1434   0.00  -0.00  -0.00   -6.72   27.26   -3.63  1.700  0.000 0 1 0 2  1.667  1.667  93.00    0.00     0.00    0.00   1   90.00     0    0    0    71   0.0  1   7    0    0   0.000    0.000    0.000  1
 45   1    1  1 0 1    44  16    97   96   96     0.00000   4.76532 1.84723e-002   711  1236   0.00  -0.00  -0.00   -6.72   28.96   -3.63  1.700  0.000 0 1 0 2  1.667  1.667  93.00    0.00     0.00    0.00   1   90.00     0    0    0    71   0.0  1   7    0    0   0.000    0.000    0.000  1
 46   1    1  1 0 1    45  16    97   96   96     0.00000   4.76532 1.84723e-002   702  1220   0.00  -0.00  -0.00   -6.72   30.66   -3.63  1.700  0.000 0 1 0 2  1.667  1.667  93.00    0.00     0.00    0.00   1   90.00     0    0    0    71   0.0  1   7    0    0   0.000    0.000    0.000  1
 47   1    1  1 0 1    46  16    97   96   96     0.00000   4.76532 1.84723e-002   773  1343   0.00  -0.00  -0.00   -6.72   32.36   -3.63  1.700  0.000 0 1 0 2  1.667  1.667  93.00    0.00     0.00    0.00   1   90.00     0    0    0    71   0.0  1   7    0    0   0.000    0.000    0.000  1
 48   1    1  1 0 1    47  16    97   96   96     0.00000   4.76532 1.84723e-002   720  1251   0.00  -0.00  -0.00   -6.72   34.06   -3.63  1.700  0.000 0 1 0 2  1.667  1.667  93.00    0.00     0.00    0.00   1   90.00     0    0    0    71   0.0  1   7    0    0   0.000    0.000    0.000  1
 49   1    1  1 0 1    48  16    97   96   96     0.00000   4.76532 1.84723e-002   714  1242   0.00  -0.00  -0.00   -6.72   35.76   -3.63  1.700  0.000 0 1 0 2  1.667  1.667  93.00    0.00     0.00    0.00   1   90.00     0    0    0    71   0.0  1   7    0    0   0.000    0.000    0.000  1
 50   1    1  1 0 1    49  16    97   96   96     0.00000   4.76532 1.84723e-002   670  1165   0.00  -0.00  -0.00   -6.72   37.46   -3.63  1.700  0.000 0 1 0 2  1.667  1.667  93.00    0.00     0.00    0.00   1   90.00     0    0    0    71   0.0  1   7    0    0   0.000    0.000    0.000  1
 51   1    1  1 0 1    50  16    97   96   96     0.00000   4.76532 1.84723e-002   655  1139   0.00  -0.00  -0.00   -6.72   39.16   -3.63  1.700  0.000 0 1 0 2  1.667  1.667  93.00    0.00     0.00    0.00   1   90.00     0    0    0    71   0.0  1   7    0    0   0.000    0.000    0.000  1
 52   1    1  1 0 1    51  16    97   96   96     0.00000   4.76532 1.84723e-002   699  1215   0.00  -0.00  -0.00   -6.72   40.86   -3.63  1.700  0.000 0 1 0 2  1.667  1.667  93.00    0.00     0.00    0.00   1   90.00     0    0    0    71   0.0  1   7    0    0   0.000    0.000    0.000  1
 53   1    1  1 0 1    52  16    97   96   96     0.00000   4.76532 1.84723e-002   702  1220   0.00  -0.00  -0.00   -6.72   42.56   -3.63  1.700  0.000 0 1 0 2  1.667  1.667  93.00    0.00     0.00    0.00   1   90.00     0    0    0    71   0.0  1   7    0    0   0.000    0.000    0.000  1
 54   1    1  1 0 1    53  16    97   96   96     0.00000   4.76532 1.84723e-002   776  1349   0.00  -0.00  -0.00   -6.72   44.26   -3.63  1.700  0.000 0 1 0 2  1.667  1.667  93.00    0.00     0.00    0.00   1   90.00     0    0    0    71   0.0  1   7    0    0   0.000    0.000    0.000  1
 55   1    1  1 0 1    54  16    97   96   96     0.00000   4.76532 1.84723e-002   778  1353   0.00  -0.00  -0.00   -6.72   45.96   -3.63  1.700  0.000 0 1 0 2  1.667  1.667  93.00    0.00     0.00    0.00   1   90.00     0    0    0    71   0.0  1   7    0    0   0.000    0.000    0.000  1
 56   1    1  1 0 1    55  16    97   96   96     0.00000   4.76532 1.84723e-002   811  1409   0.00  -0.00  -0.00   -6.72   47.66   -3.63  1.700  0.000 0 1 0 2  1.667  1.667  93.00    0.00     0.00    0.00   1   90.00     0    0    0    71   0.0  1   7    0    0   0.000    0.000    0.000  1
 57   1    1  1 0 1    56  16    97   96   96     0.00000   4.76532 1.84723e-002   968  1682   0.00  -0.00  -0.00   -6.72   49.36   -3.63  1.700  0.000 0 1 0 2  1.667  1.667  93.00    0.00     0.00    0.00   1   90.00     0    0    0    71   0.0  1   7    0    0   0.000    0.000    0.000  1
 58   1    1  1 0 1    57  16    97   96   96     0.00000   4.76532 1.84723e-002   813  1414   0.00  -0.00  -0.00   -6.72   51.06   -3.63  1.700  0.000 0 1 0 2  1.667  1.667  93.00    0.00     0.00    0.00   1   90.00     0    0    0    71   0.0  1   7    0    0   0.000    0.000    0.000  1
 59   1    1  1 0 1    58  16    97   96   96     0.00000   4.76532 1.84723e-002   795  1382   0.00  -0.00  -0.00   -6.72   52.76   -3.63  1.700  0.000 0 1 0 2  1.667  1.667  93.00    0.00     0.00    0.00   1   90.00     0    0    0    71   0.0  1   7    0    0   0.000    0.000    0.000  1
 60   1    1  1 0 1    59  16    97   96   96     0.00000   4.76532 1.84723e-002   791  1375   0.00  -0.00  -0.00   -6.72   54.46   -3.63  1.700  0.000 0 1 0 2  1.667  1.667  93.00    0.00     0.00    0.00   1   90.00     0    0    0    71   0.0  1   7    0    0   0.000    0.000    0.000  1
 61   1    1  1 0 1    60  16    97   96   96     0.00000   4.76532 1.84723e-002   672  1168   0.00  -0.00  -0.00   -6.72   56.16   -3.63  1.700  0.000 0 1 0 2  1.667  1.667  93.00    0.00     0.00    0.00   1   90.00     0    0    0    71   0.0  1   7    0    0   0.000    0.000    0.000  1
 62   1    1  1 0 1    61  16    97   96   96     0.00000   4.76532 1.84723e-002   630  1094   0.00  -0.00  -0.00   -6.72   57.86   -3.63  1.700  0.000 0 1 0 2  1.667  1.667  93.00    0.00     0.00    0.00   1   90.00     0    0    0    71   0.0  1   7    0    0   0.000    0.000    0.000  1
 63   1    1  1 0 1    62  16    97   96   96     0.00000   4.76532 1.84723e-002   591  1026   0.00  -0.00  -0.00   -6.72   59.56   -3.63  1.700  0.000 0 1 0 2  1.667  1.667  93.00    0.00     0.00    0.00   1   90.00     0    0    0    71   0.0  1   7    0    0   0.000    0.000    0.000  1
 64   1    1  1 0 1    63  16    97   96   96     0.00000   4.76532 1.84723e-002   760  1321   0.00  -0.00  -0.00   -6.72   61.26   -3.63  1.700  0.000 0 1 0 2  1.667  1.667  93.00    0.00     0.00    0.00   1   90.00     0    0    0    71   0.0  1   7    0    0   0.000    0.000    0.000  1
 65   1    1  1 0 1    64  16    97   96   96     0.00000   4.76532 1.84723e-002   726  1262   0.00  -0.00  -0.00   -6.72   62.96   -3.63  1.700  0.000 0 1 0 2  1.667  1.667  93.00    0.00     0.00    0.00   1   90.00     0    0    0    71   0.0  1   7    0    0   0.000    0.000    0.000  1
 66   1    1  1 0 1    65  16    97   96   96     0.00000   4.76532 1.84723e-002   659  1145   0.00  -0.00  -0.00   -6.72   64.66   -3.63  1.700  0.000 0 1 0 2  1.667  1.667  93.00    0.00     0.00    0.00   1   90.00     0    0    0    71   0.0  1   7    0    0   0.000    0.000    0.000  1
 67   1    1  1 0 1    66  16    97   96   96     0.00000   4.76532 1.84723e-002   636  1106   0.00  -0.00  -0.00   -6.72   66.36   -3.63  1.700  0.000 0 1 0 2  1.667  1.667  93.00    0.00     0.00    0.00   1   90.00     0    0    0    71   0.0  1   7    0    0   0.000    0.000    0.000  1
 68   1    1  1 0 1    67  16    97   96   96     0.00000   4.76532 1.84723e-002   509   885   0.00  -0.00  -0.00   -6.72   68.06   -3.63  1.700  0.000 0 1 0 2  1.667  1.667  93.00    0.00     0.00    0.00   1   90.00     0    0    0    71   0.0  1   7    0    0   0.000    0.000    0.000  1
 69   1    1  1 0 1    68  16    97   96   96     0.00000   4.76532 1.84723e-002    96   167   0.00  -0.00  -0.00   -6.72   69.76   -3.63  1.700  0.000 0 1 0 2  1.667  1.667  93.00    0.00     0.00    0.00   1   90.00     0    0    0    71   0.0  1   7    0    0   0.000    0.000    0.000  1
 70   1    1  1 0 1    69  16    97   96   96     0.00000   4.76532 1.84723e-002    73   128   0.00  -0.00  -0.00   -6.72   71.46   -3.63  1.700  0.000 0 1 0 2  1.667  1.667  93.00    0.00     0.00    0.00   1   90.00     0    0    0    71   0.0  1   7    0    0   0.000    0.000    0.000  1
 71   1    1  1 0 1    70  16    97   96   96     0.00000   4.76532 1.84723e-002    49    84   0.00  -0.00  -0.00   -6.72   73.16   -3.63  1.700  0.000 0 1 0 2  1.667  1.667  93.00    0.00     0.00    0.00   1   90.00     0    0    0    71   0.0  1   7    0    0   0.000    0.000    0.000  1
 72   1    1  1 0 1    71  16    97   96   96     0.00000   4.76532 1.84723e-002    33    57   0.00  -0.00  -0.00   -6.72   74.86   -3.63  1.700  0.000 0 1 0 2  1.667  1.667  93.00    0.00     0.00    0.00   1   90.00     0    0    0    71   0.0  1   7    0    0   0.000    0.000    0.000  1
 73   1    1  1 0 1    72  16    97   96   96     0.00000   4.76532 1.84723e-002    31    53   0.00  -0.00  -0.00   -6.72   76.56   -3.63  1.700  0.000 0 1 0 2  1.667  1.667  93.00    0.00     0.00    0.00   1   90.00     0    0    0    71   0.0  1   7    0    0   0.000    0.000    0.000  1
 74   1    1  1 0 1    73  16    97   96   96     0.00000   4.76532 1.84723e-002    24    42   0.00  -0.00  -0.00   -6.72   78.26   -3.63  1.700  0.000 0 1 0 2  1.667  1.667  93.00    0.00     0.00    0.00   1   90.00     0    0    0    71   0.0  1   7    0    0   0.000    0.000    0.000  1
 75   1    1  1 0 1    74  16    97   96   96     0.00000   4.76532 1.84723e-002     9    16   0.00  -0.00  -0.00   -6.72   79.96   -3.63  1.700  0.000 0 1 0 2  1.667  1.667  93.00    0.00     0.00    0.00   1   90.00     0    0    0    71   0.0  1   7    0    0   0.000    0.000    0.000  1
 76   1    1  1 0 1    75  16    97   96   96     0.00000   4.76532 1.84723e-002     4     7   0.00  -0.00  -0.00   -6.72   81.66   -3.63  1.700  0.000 0 1 0 2  1.667  1.667  93.00    0.00     0.00    0.00   1   90.00     0    0    0    71   0.0  1   7    0    0   0.000    0.000    0.000  1
 77   1    1  1 0 1    76  16    97   96   96     0.00000   4.76532 1.84723e-002     1     2   0.00  -0.00  -0.00   -6.72   83.36   -3.63  1.700  0.000 0 1 0 2  1.667  1.667  93.00    0.00     0.00    0.00   1   90.00     0    0    0    71   0.0  1   7    0    0   0.000    0.000    0.000  1
 78   1    1  1 0 1    77  16    97   96   96     0.00000   4.76532 1.84723e-002     1     1   0.00  -0.00  -0.00   -6.72   85.06   -3.63  1.700  0.000 0 1 0 2  1.667  1.667  93.00    0.00     0.00    0.00   1   90.00     0    0    0    71   0.0  1   7    0    0   0.000    0.000    0.000  1
 79   1    1  1 0 1    78  16    97   96   96     0.00000   4.76532 1.84723e-002     1     1   0.00  -0.00  -0.00   -6.72   86.76   -3.63  1.700  0.000 0 1 0 2  1.667  1.667  93.00    0.00     0.00    0.00   1   90.00     0    0    0    71   0.0  1   7    0    0   0.000    0.000    0.000  1
 80   1    1  1 0 1    79  16    97   96   96     0.00000   4.76532 1.84723e-002     1     1   0.00  -0.00  -0.00   -6.72   88.46   -3.63  1.700  0.000 0 1 0 2  1.667  1.667  93.00    0.00     0.00    0.00   1   90.00     0    0    0    71   0.0  1   7    0    0   0.000    0.000    0.000  1
 81   1    1  1 0 1    80  16    97   96   96     0.00000   4.76532 1.84723e-002     1     1   0.00  -0.00  -0.00   -6.72   90.16   -3.63  1.700  0.000 0 1 0 2  1.667  1.667  93.00    0.00     0.00    0.00   1   90.00     0    0    0    71   0.0  1   7    0    0   0.000    0.000    0.000  1
 82   1    1  1 0 1    81  16    97   96   96     0.00000   4.76532 1.84723e-002     1     1   0.00  -0.00  -0.00   -6.72   91.86   -3.63  1.700  0.000 0 1 0 2  1.667  1.667  93.00    0.00     0.00    0.00   1   90.00     0    0    0    71   0.0  1   7    0    0   0.000    0.000    0.000  1
 83   1    1  1 0 1    82  16    97   96   96     0.00000   4.76532 1.84723e-002     1     1   0.00  -0.00  -0.00   -6.72   93.56   -3.63  1.700  0.000 0 1 0 2  1.667  1.667  93.00    0.00     0.00    0.00   1   90.00     0    0    0    71   0.0  1   7    0    0   0.000    0.000    0.000  1
 84   1    1  1 0 1    83  16    97   96   96     0.00000   4.76532 1.84723e-002     1     1   0.00  -0.00  -0.00   -6.72   95.26   -3.63  1.700  0.000 0 1 0 2  1.667  1.667  93.00    0.00     0.00    0.00   1   90.00     0    0    0    71   0.0  1   7    0    0   0.000    0.000    0.000  1

