# === DATA DESCRIPTION FILE ======================================================
#
# CAUTION - Investigational device.
# Limited by Federal Law to investigational use.
#
# Dataset name: e:\dicom\\IRC317H-2_WIP_6_DIR_B0_A_TE88_SENSE_NO_MB_NO_6_1
#
# CLINICAL TRYOUT             Research image export tool     V4.2
#
# === GENERAL INFORMATION ========================================================
#
.    Patient name                       :   IRC317H-2
.    Examination name                   :   IRC317H
.    Protocol name                      :   WIP 6 DIR B0 A TE88 SENSE NO MB NO
.    Examination date/time              :   2018.04.19 / 09:38:14
.    Series Type                        :   Image   MRSERIES
.    Acquisition nr                     :   6
.    Reconstruction nr                  :   1
.    Scan Duration [sec]                :   22.9
.    Max. number of cardiac phases      :   1
.    Max. number of echoes              :   1
.    Max. number of slices/locations    :   54
.    Max. number of dynamics            :   1
.    Max. number of mixes               :   1
.    Patient position                   :   Head First Supine
.    Preparation direction              :   Anterior-Posterior
.    Technique                          :   DwiSE
.    Scan resolution  (x, y)            :   80  79
.    Scan mode                          :   MS
.    Repetition time [ms]               :   6947.116  
.    FOV (ap,fh,rl) [mm]                :   160.000  108.000  160.000
.    Water Fat shift [pixels]           :   22.516
.    Angulation midslice(ap,fh,rl)[degr]:   0.000  0.000  0.000
.    Off Centre midslice(ap,fh,rl) [mm] :   -6.719  24.715  -3.628
.    Flow compensation <0=no 1=yes> ?   :   0
.    Presaturation     <0=no 1=yes> ?   :   0
.    Phase encoding velocity [cm/sec]   :   0.000000  0.000000  0.000000
.    MTC               <0=no 1=yes> ?   :   0
.    SPIR              <0=no 1=yes> ?   :   1
.    EPI factor        <0,1=no EPI>     :   79
.    Dynamic scan      <0=no 1=yes> ?   :   0
.    Diffusion         <0=no 1=yes> ?   :   1
.    Diffusion echo time [ms]           :   0.0000
.    Max. number of diffusion values    :   1
.    Max. number of gradient orients    :   7
.    Number of label types   <0=no ASL> :   0
#
# === PIXEL VALUES =============================================================
#  PV = pixel value in REC file, FP = floating point value, DV = displayed value on console
#  RS = rescale slope,           RI = rescale intercept,    SS = scale slope
#  DV = PV * RS + RI             FP = DV / (RS * SS)
#
# === IMAGE INFORMATION DEFINITION =============================================
#  The rest of this file contains ONE line per image, this line contains the following information:
#
#  slice number                             (integer)
#  echo number                              (integer)
#  dynamic scan number                      (integer)
#  cardiac phase number                     (integer)
#  image_type_mr                            (integer)
#  scanning sequence                        (integer)
#  index in REC file (in images)            (integer)
#  image pixel size (in bits)               (integer)
#  scan percentage                          (integer)
#  recon resolution (x y)                   (2*integer)
#  rescale intercept                        (float)
#  rescale slope                            (float)
#  scale slope                              (float)
#  window center                            (integer)
#  window width                             (integer)
#  image angulation (ap,fh,rl in degrees )  (3*float)
#  image offcentre (ap,fh,rl in mm )        (3*float)
#  slice thickness (in mm )                 (float)
#  slice gap (in mm )                       (float)
#  image_display_orientation                (integer)
#  slice orientation ( TRA/SAG/COR )        (integer)
#  fmri_status_indication                   (integer)
#  image_type_ed_es  (end diast/end syst)   (integer)
#  pixel spacing (x,y) (in mm)              (2*float)
#  echo_time                                (float)
#  dyn_scan_begin_time                      (float)
#  trigger_time                             (float)
#  diffusion_b_factor                       (float)
#  number of averages                       (integer)
#  image_flip_angle (in degrees)            (float)
#  cardiac frequency   (bpm)                (integer)
#  minimum RR-interval (in ms)              (integer)
#  maximum RR-interval (in ms)              (integer)
#  TURBO factor  <0=no turbo>               (integer)
#  Inversion delay (in ms)                  (float)
#  diffusion b value number    (imagekey!)  (integer)
#  gradient orientation number (imagekey!)  (integer)
#  contrast type                            (string)
#  diffusion anisotropy type                (string)
#  diffusion (ap, fh, rl)                   (3*float)
#  label type (ASL)            (imagekey!)  (integer)
#
# === IMAGE INFORMATION ==========================================================
#  sl ec  dyn ph ty    idx pix scan% rec size                (re)scale              window        angulation              offcentre        thick   gap   info      spacing     echo     dtime   ttime    diff  avg  flip    freq   RR-int  turbo delay b grad cont anis         diffusion       L.ty

  1   1    1  1 0 1     0  16   100   80   80     0.00000   2.20806 3.43024e-002  1043  1813   0.00  -0.00  -0.00   -6.72  -28.29   -3.63  2.000  0.000 0 1 0 2  2.000  2.000  88.00    0.00     0.00    0.00   1   90.00     0    0    0    79   0.0  1   7    0    0   0.000    0.000    0.000  1
  2   1    1  1 0 1     1  16   100   80   80     0.00000   2.20806 3.43024e-002  1057  1837   0.00  -0.00  -0.00   -6.72  -26.29   -3.63  2.000  0.000 0 1 0 2  2.000  2.000  88.00    0.00     0.00    0.00   1   90.00     0    0    0    79   0.0  1   7    0    0   0.000    0.000    0.000  1
  3   1    1  1 0 1     2  16   100   80   80     0.00000   2.20806 3.43024e-002  1070  1860   0.00  -0.00  -0.00   -6.72  -24.29   -3.63  2.000  0.000 0 1 0 2  2.000  2.000  88.00    0.00     0.00    0.00   1   90.00     0    0    0    79   0.0  1   7    0    0   0.000    0.000    0.000  1
  4   1    1  1 0 1     3  16   100   80   80     0.00000   2.20806 3.43024e-002  1076  1871   0.00  -0.00  -0.00   -6.72  -22.29   -3.63  2.000  0.000 0 1 0 2  2.000  2.000  88.00    0.00     0.00    0.00   1   90.00     0    0    0    79   0.0  1   7    0    0   0.000    0.000    0.000  1
  5   1    1  1 0 1     4  16   100   80   80     0.00000   2.20806 3.43024e-002  1439  2501   0.00  -0.00  -0.00   -6.72  -20.29   -3.63  2.000  0.000 0 1 0 2  2.000  2.000  88.00    0.00     0.00    0.00   1   90.00     0    0    0    79   0.0  1   7    0    0   0.000    0.000    0.000  1
  6   1    1  1 0 1     5  16   100   80   80     0.00000   2.20806 3.43024e-002  1389  2415   0.00  -0.00  -0.00   -6.72  -18.29   -3.63  2.000  0.000 0 1 0 2  2.000  2.000  88.00    0.00     0.00    0.00   1   90.00     0    0    0    79   0.0  1   7    0    0   0.000    0.000    0.000  1
  7   1    1  1 0 1     6  16   100   80   80     0.00000   2.20806 3.43024e-002  1264  2198   0.00  -0.00  -0.00   -6.72  -16.29   -3.63  2.000  0.000 0 1 0 2  2.000  2.000  88.00    0.00     0.00    0.00   1   90.00     0    0    0    79   0.0  1   7    0    0   0.000    0.000    0.000  1
  8   1    1  1 0 1     7  16   100   80   80     0.00000   2.20806 3.43024e-002  1460  2538   0.00  -0.00  -0.00   -6.72  -14.29   -3.63  2.000  0.000 0 1 0 2  2.000  2.000  88.00    0.00     0.00    0.00   1   90.00     0    0    0    79   0.0  1   7    0    0   0.000    0.000    0.000  1
  9   1    1  1 0 1     8  16   100   80   80     0.00000   2.20806 3.43024e-002  1486  2583   0.00  -0.00  -0.00   -6.72  -12.29   -3.63  2.000  0.000 0 1 0 2  2.000  2.000  88.00    0.00     0.00    0.00   1   90.00     0    0    0    79   0.0  1   7    0    0   0.000    0.000    0.000  1
 10   1    1  1 0 1     9  16   100   80   80     0.00000   2.20806 3.43024e-002  1654  2875   0.00  -0.00  -0.00   -6.72  -10.29   -3.63  2.000  0.000 0 1 0 2  2.000  2.000  88.00    0.00     0.00    0.00   1   90.00     0    0    0    79   0.0  1   7    0    0   0.000    0.000    0.000  1
 11   1    1  1 0 1    10  16   100   80   80     0.00000   2.20806 3.43024e-002  1545  2686   0.00  -0.00  -0.00   -6.72   -8.29   -3.63  2.000  0.000 0 1 0 2  2.000  2.000  88.00    0.00     0.00    0.00   1   90.00     0    0    0    79   0.0  1   7    0    0   0.000    0.000    0.000  1
 12   1    1  1 0 1    11  16   100   80   80     0.00000   2.20806 3.43024e-002  1431  2488   0.00  -0.00  -0.00   -6.72   -6.29   -3.63  2.000  0.000 0 1 0 2  2.000  2.000  88.00    0.00     0.00    0.00   1   90.00     0    0    0    79   0.0  1   7    0    0   0.000    0.000    0.000  1
 13   1    1  1 0 1    12  16   100   80   80     0.00000   2.20806 3.43024e-002  1301  2262   0.00  -0.00  -0.00   -6.72   -4.29   -3.63  2.000  0.000 0 1 0 2  2.000  2.000  88.00    0.00     0.00    0.00   1   90.00     0    0    0    79   0.0  1   7    0    0   0.000    0.000    0.000  1
 14   1    1  1 0 1    13  16   100   80   80     0.00000   2.20806 3.43024e-002  1281  2227   0.00  -0.00  -0.00   -6.72   -2.29   -3.63  2.000  0.000 0 1 0 2  2.000  2.000  88.00    0.00     0.00    0.00   1   90.00     0    0    0    79   0.0  1   7    0    0   0.000    0.000    0.000  1
 15   1    1  1 0 1    14  16   100   80   80     0.00000   2.20806 3.43024e-002  1340  2329   0.00  -0.00  -0.00   -6.72   -0.29   -3.63  2.000  0.000 0 1 0 2  2.000  2.000  88.00    0.00     0.00    0.00   1   90.00     0    0    0    79   0.0  1   7    0    0   0.000    0.000    0.000  1
 16   1    1  1 0 1    15  16   100   80   80     0.00000   2.20806 3.43024e-002  1918  3334   0.00  -0.00  -0.00   -6.72    1.71   -3.63  2.000  0.000 0 1 0 2  2.000  2.000  88.00    0.00     0.00    0.00   1   90.00     0    0    0    79   0.0  1   7    0    0   0.000    0.000    0.000  1
 17   1    1  1 0 1    16  16   100   80   80     0.00000   2.20806 3.43024e-002  1609  2797   0.00  -0.00  -0.00   -6.72    3.71   -3.63  2.000  0.000 0 1 0 2  2.000  2.000  88.00    0.00     0.00    0.00   1   90.00     0    0    0    79   0.0  1   7    0    0   0.000    0.000    0.000  1
 18   1    1  1 0 1    17  16   100   80   80     0.00000   2.20806 3.43024e-002  1254  2179   0.00  -0.00  -0.00   -6.72    5.71   -3.63  2.000  0.000 0 1 0 2  2.000  2.000  88.00    0.00     0.00    0.00   1   90.00     0    0    0    79   0.0  1   7    0    0   0.000    0.000    0.000  1
 19   1    1  1 0 1    18  16   100   80   80     0.00000   2.20806 3.43024e-002  1293  2247   0.00  -0.00  -0.00   -6.72    7.71   -3.63  2.000  0.000 0 1 0 2  2.000  2.000  88.00    0.00     0.00    0.00   1   90.00     0    0    0    79   0.0  1   7    0    0   0.000    0.000    0.000  1
 20   1    1  1 0 1    19  16   100   80   80     0.00000   2.20806 3.43024e-002  1117  1942   0.00  -0.00  -0.00   -6.72    9.71   -3.63  2.000  0.000 0 1 0 2  2.000  2.000  88.00    0.00     0.00    0.00   1   90.00     0    0    0    79   0.0  1   7    0    0   0.000    0.000    0.000  1
 21   1    1  1 0 1    20  16   100   80   80     0.00000   2.20806 3.43024e-002  1135  1973   0.00  -0.00  -0.00   -6.72   11.71   -3.63  2.000  0.000 0 1 0 2  2.000  2.000  88.00    0.00     0.00    0.00   1   90.00     0    0    0    79   0.0  1   7    0    0   0.000    0.000    0.000  1
 22   1    1  1 0 1    21  16   100   80   80     0.00000   2.20806 3.43024e-002  1408  2447   0.00  -0.00  -0.00   -6.72   13.71   -3.63  2.000  0.000 0 1 0 2  2.000  2.000  88.00    0.00     0.00    0.00   1   90.00     0    0    0    79   0.0  1   7    0    0   0.000    0.000    0.000  1
 23   1    1  1 0 1    22  16   100   80   80     0.00000   2.20806 3.43024e-002  1540  2676   0.00  -0.00  -0.00   -6.72   15.71   -3.63  2.000  0.000 0 1 0 2  2.000  2.000  88.00    0.00     0.00    0.00   1   90.00     0    0    0    79   0.0  1   7    0    0   0.000    0.000    0.000  1
 24   1    1  1 0 1    23  16   100   80   80     0.00000   2.20806 3.43024e-002  1622  2820   0.00  -0.00  -0.00   -6.72   17.71   -3.63  2.000  0.000 0 1 0 2  2.000  2.000  88.00    0.00     0.00    0.00   1   90.00     0    0    0    79   0.0  1   7    0    0   0.000    0.000    0.000  1
 25   1    1  1 0 1    24  16   100   80   80     0.00000   2.20806 3.43024e-002  1688  2935   0.00  -0.00  -0.00   -6.72   19.71   -3.63  2.000  0.000 0 1 0 2  2.000  2.000  88.00    0.00     0.00    0.00   1   90.00     0    0    0    79   0.0  1   7    0    0   0.000    0.000    0.000  1
 26   1    1  1 0 1    25  16   100   80   80     0.00000   2.20806 3.43024e-002  1421  2471   0.00  -0.00  -0.00   -6.72   21.71   -3.63  2.000  0.000 0 1 0 2  2.000  2.000  88.00    0.00     0.00    0.00   1   90.00     0    0    0    79   0.0  1   7    0    0   0.000    0.000    0.000  1
 27   1    1  1 0 1    26  16   100   80   80     0.00000   2.20806 3.43024e-002  1509  2623   0.00  -0.00  -0.00   -6.72   23.71   -3.63  2.000  0.000 0 1 0 2  2.000  2.000  88.00    0.00     0.00    0.00   1   90.00     0    0    0    79   0.0  1   7    0    0   0.000    0.000    0.000  1
 28   1    1  1 0 1    27  16   100   80   80     0.00000   2.20806 3.43024e-002  1436  2497   0.00  -0.00  -0.00   -6.72   25.71   -3.63  2.000  0.000 0 1 0 2  2.000  2.000  88.00    0.00     0.00    0.00   1   90.00     0    0    0    79   0.0  1   7    0    0   0.000    0.000    0.000  1
 29   1    1  1 0 1    28  16   100   80   80     0.00000   2.20806 3.43024e-002  1286  2235   0.00  -0.00  -0.00   -6.72   27.71   -3.63  2.000  0.000 0 1 0 2  2.000  2.000  88.00    0.00     0.00    0.00   1   90.00     0    0    0    79   0.0  1   7    0    0   0.000    0.000    0.000  1
 30   1    1  1 0 1    29  16   100   80   80     0.00000   2.20806 3.43024e-002  1361  2365   0.00  -0.00  -0.00   -6.72   29.71   -3.63  2.000  0.000 0 1 0 2  2.000  2.000  88.00    0.00     0.00    0.00   1   90.00     0    0    0    79   0.0  1   7    0    0   0.000    0.000    0.000  1
 31   1    1  1 0 1    30  16   100   80   80     0.00000   2.20806 3.43024e-002  1215  2113   0.00  -0.00  -0.00   -6.72   31.71   -3.63  2.000  0.000 0 1 0 2  2.000  2.000  88.00    0.00     0.00    0.00   1   90.00     0    0    0    79   0.0  1   7    0    0   0.000    0.000    0.000  1
 32   1    1  1 0 1    31  16   100   80   80     0.00000   2.20806 3.43024e-002  1178  2048   0.00  -0.00  -0.00   -6.72   33.71   -3.63  2.000  0.000 0 1 0 2  2.000  2.000  88.00    0.00     0.00    0.00   1   90.00     0    0    0    79   0.0  1   7    0    0   0.000    0.000    0.000  1
 33   1    1  1 0 1    32  16   100   80   80     0.00000   2.20806 3.43024e-002  1192  2072   0.00  -0.00  -0.00   -6.72   35.71   -3.63  2.000  0.000 0 1 0 2  2.000  2.000  88.00    0.00     0.00    0.00   1   90.00     0    0    0    79   0.0  1   7    0    0   0.000    0.000    0.000  1
 34   1    1  1 0 1    33  16   100   80   80     0.00000   2.20806 3.43024e-002  1160  2016   0.00  -0.00  -0.00   -6.72   37.71   -3.63  2.000  0.000 0 1 0 2  2.000  2.000  88.00    0.00     0.00    0.00   1   90.00     0    0    0    79   0.0  1   7    0    0   0.000    0.000    0.000  1
 35   1    1  1 0 1    34  16   100   80   80     0.00000   2.20806 3.43024e-002  1117  1943   0.00  -0.00  -0.00   -6.72   39.71   -3.63  2.000  0.000 0 1 0 2  2.000  2.000  88.00    0.00     0.00    0.00   1   90.00     0    0    0    79   0.0  1   7    0    0   0.000    0.000    0.000  1
 36   1    1  1 0 1    35  16   100   80   80     0.00000   2.20806 3.43024e-002  1105  1921   0.00  -0.00  -0.00   -6.72   41.71   -3.63  2.000  0.000 0 1 0 2  2.000  2.000  88.00    0.00     0.00    0.00   1   90.00     0    0    0    79   0.0  1   7    0    0   0.000    0.000    0.000  1
 37   1    1  1 0 1    36  16   100   80   80     0.00000   2.20806 3.43024e-002  1067  1854   0.00  -0.00  -0.00   -6.72   43.71   -3.63  2.000  0.000 0 1 0 2  2.000  2.000  88.00    0.00     0.00    0.00   1   90.00     0    0    0    79   0.0  1   7    0    0   0.000    0.000    0.000  1
 38   1    1  1 0 1    37  16   100   80   80     0.00000   2.20806 3.43024e-002  1076  1871   0.00  -0.00  -0.00   -6.72   45.71   -3.63  2.000  0.000 0 1 0 2  2.000  2.000  88.00    0.00     0.00    0.00   1   90.00     0    0    0    79   0.0  1   7    0    0   0.000    0.000    0.000  1
 39   1    1  1 0 1    38  16   100   80   80     0.00000   2.20806 3.43024e-002  1053  1830   0.00  -0.00  -0.00   -6.72   47.71   -3.63  2.000  0.000 0 1 0 2  2.000  2.000  88.00    0.00     0.00    0.00   1   90.00     0    0    0    79   0.0  1   7    0    0   0.000    0.000    0.000  1
 40   1    1  1 0 1    39  16   100   80   80     0.00000   2.20806 3.43024e-002  1060  1843   0.00  -0.00  -0.00   -6.72   49.71   -3.63  2.000  0.000 0 1 0 2  2.000  2.000  88.00    0.00     0.00    0.00   1   90.00     0    0    0    79   0.0  1   7    0    0   0.000    0.000    0.000  1
 41   1    1  1 0 1    40  16   100   80   80     0.00000   2.20806 3.43024e-002  1307  2273   0.00  -0.00  -0.00   -6.72   51.71   -3.63  2.000  0.000 0 1 0 2  2.000  2.000  88.00    0.00     0.00    0.00   1   90.00     0    0    0    79   0.0  1   7    0    0   0.000    0.000    0.000  1
 42   1    1  1 0 1    41  16   100   80   80     0.00000   2.20806 3.43024e-002  1410  2451   0.00  -0.00  -0.00   -6.72   53.71   -3.63  2.000  0.000 0 1 0 2  2.000  2.000  88.00    0.00     0.00    0.00   1   90.00     0    0    0    79   0.0  1   7    0    0   0.000    0.000    0.000  1
 43   1    1  1 0 1    42  16   100   80   80     0.00000   2.20806 3.43024e-002  1085  1886   0.00  -0.00  -0.00   -6.72   55.71   -3.63  2.000  0.000 0 1 0 2  2.000  2.000  88.00    0.00     0.00    0.00   1   90.00     0    0    0    79   0.0  1   7    0    0   0.000    0.000    0.000  1
 44   1    1  1 0 1    43  16   100   80   80     0.00000   2.20806 3.43024e-002  1093  1900   0.00  -0.00  -0.00   -6.72   57.71   -3.63  2.000  0.000 0 1 0 2  2.000  2.000  88.00    0.00     0.00    0.00   1   90.00     0    0    0    79   0.0  1   7    0    0   0.000    0.000    0.000  1
 45   1    1  1 0 1    44  16   100   80   80     0.00000   2.20806 3.43024e-002   987  1716   0.00  -0.00  -0.00   -6.72   59.71   -3.63  2.000  0.000 0 1 0 2  2.000  2.000  88.00    0.00     0.00    0.00   1   90.00     0    0    0    79   0.0  1   7    0    0   0.000    0.000    0.000  1
 46   1    1  1 0 1    45  16   100   80   80     0.00000   2.20806 3.43024e-002  1028  1787   0.00  -0.00  -0.00   -6.72   61.71   -3.63  2.000  0.000 0 1 0 2  2.000  2.000  88.00    0.00     0.00    0.00   1   90.00     0    0    0    79   0.0  1   7    0    0   0.000    0.000    0.000  1
 47   1    1  1 0 1    46  16   100   80   80     0.00000   2.20806 3.43024e-002   999  1737   0.00  -0.00  -0.00   -6.72   63.71   -3.63  2.000  0.000 0 1 0 2  2.000  2.000  88.00    0.00     0.00    0.00   1   90.00     0    0    0    79   0.0  1   7    0    0   0.000    0.000    0.000  1
 48   1    1  1 0 1    47  16   100   80   80     0.00000   2.20806 3.43024e-002  1102  1916   0.00  -0.00  -0.00   -6.72   65.71   -3.63  2.000  0.000 0 1 0 2  2.000  2.000  88.00    0.00     0.00    0.00   1   90.00     0    0    0    79   0.0  1   7    0    0   0.000    0.000    0.000  1
 49   1    1  1 0 1    48  16   100   80   80     0.00000   2.20806 3.43024e-002   988  1717   0.00  -0.00  -0.00   -6.72   67.71   -3.63  2.000  0.000 0 1 0 2  2.000  2.000  88.00    0.00     0.00    0.00   1   90.00     0    0    0    79   0.0  1   7    0    0   0.000    0.000    0.000  1
 50   1    1  1 0 1    49  16   100   80   80     0.00000   2.20806 3.43024e-002   860  1494   0.00  -0.00  -0.00   -6.72   69.71   -3.63  2.000  0.000 0 1 0 2  2.000  2.000  88.00    0.00     0.00    0.00   1   90.00     0    0    0    79   0.0  1   7    0    0   0.000    0.000    0.000  1
 51   1    1  1 0 1    50  16   100   80   80     0.00000   2.20806 3.43024e-002   105   182   0.00  -0.00  -0.00   -6.72   71.71   -3.63  2.000  0.000 0 1 0 2  2.000  2.000  88.00    0.00     0.00    0.00   1   90.00     0    0    0    79   0.0  1   7    0    0   0.000    0.000    0.000  1
 52   1    1  1 0 1    51  16   100   80   80     0.00000   2.20806 3.43024e-002    59   102   0.00  -0.00  -0.00   -6.72   73.71   -3.63  2.000  0.000 0 1 0 2  2.000  2.000  88.00    0.00     0.00    0.00   1   90.00     0    0    0    79   0.0  1   7    0    0   0.000    0.000    0.000  1
 53   1    1  1 0 1    52  16   100   80   80     0.00000   2.20806 3.43024e-002    26    45   0.00  -0.00  -0.00   -6.72   75.71   -3.63  2.000  0.000 0 1 0 2  2.000  2.000  88.00    0.00     0.00    0.00   1   90.00     0    0    0    79   0.0  1   7    0    0   0.000    0.000    0.000  1
 54   1    1  1 0 1    53  16   100   80   80     0.00000   2.20806 3.43024e-002    19    33   0.00  -0.00  -0.00   -6.72   77.71   -3.63  2.000  0.000 0 1 0 2  2.000  2.000  88.00    0.00     0.00    0.00   1   90.00     0    0    0    79   0.0  1   7    0    0   0.000    0.000    0.000  1

# === END OF DATA DESCRIPTION FILE ===============================================
