# === DATA DESCRIPTION FILE ======================================================
#
# CAUTION - Investigational device.
# Limited by Federal Law to investigational use.
#
# Dataset name: e:\dicom\\TestData_AXIAL
#
# CLINICAL TRYOUT             Research image export tool     V4.2
#
# === GENERAL INFORMATION ========================================================
#
.    Patient name                       :   TestData
.    Examination name                   :   Protocol
.    Protocol name                      :   AXIAL
.    Examination date/time              :   2018.04.19 / 09:38:14
.    Series Type                        :   Image   MRSERIES
.    Acquisition nr                     :   3
.    Reconstruction nr                  :   3
.    Scan Duration [sec]                :   186
.    Max. number of cardiac phases      :   1
.    Max. number of echoes              :   1
.    Max. number of slices/locations    :   70
.    Max. number of dynamics            :   1
.    Max. number of mixes               :   1
.    Patient position                   :   Head First Supine
.    Preparation direction              :   Anterior-Posterior
.    Technique                          :   T1TFE
.    Scan resolution  (x, y)            :   160  160
.    Scan mode                          :   3D
.    Repetition time [ms]               :   7.343  
.    FOV (ap,fh,rl) [mm]                :   160.000  105.000  160.000
.    Water Fat shift [pixels]           :   2.268
.    Angulation midslice(ap,fh,rl)[degr]:   1.037  -6.163  -0.000
.    Off Centre midslice(ap,fh,rl) [mm] :   -7.936  15.630  -3.628
.    Flow compensation <0=no 1=yes> ?   :   0
.    Presaturation     <0=no 1=yes> ?   :   0
.    Phase encoding velocity [cm/sec]   :   0.000000  0.000000  0.000000
.    MTC               <0=no 1=yes> ?   :   0
.    SPIR              <0=no 1=yes> ?   :   0
.    EPI factor        <0,1=no EPI>     :   1
.    Dynamic scan      <0=no 1=yes> ?   :   0
.    Diffusion         <0=no 1=yes> ?   :   0
.    Diffusion echo time [ms]           :   0.0000
.    Max. number of diffusion values    :   1
.    Max. number of gradient orients    :   1
.    Number of label types   <0=no ASL> :   0
#
# === PIXEL VALUES =============================================================
#  PV = pixel value in REC file, FP = floating point value, DV = displayed value on console
#  RS = rescale slope,           RI = rescale intercept,    SS = scale slope
#  DV = PV * RS + RI             FP = DV / (RS * SS)
#
# === IMAGE INFORMATION DEFINITION =============================================
#  The rest of this file contains ONE line per image, this line contains the following information:
#
#  slice number                             (integer)
#  echo number                              (integer)
#  dynamic scan number                      (integer)
#  cardiac phase number                     (integer)
#  image_type_mr                            (integer)
#  scanning sequence                        (integer)
#  index in REC file (in images)            (integer)
#  image pixel size (in bits)               (integer)
#  scan percentage                          (integer)
#  recon resolution (x y)                   (2*integer)
#  rescale intercept                        (float)
#  rescale slope                            (float)
#  scale slope                              (float)
#  window center                            (integer)
#  window width                             (integer)
#  image angulation (ap,fh,rl in degrees )  (3*float)
#  image offcentre (ap,fh,rl in mm )        (3*float)
#  slice thickness (in mm )                 (float)
#  slice gap (in mm )                       (float)
#  image_display_orientation                (integer)
#  slice orientation ( TRA/SAG/COR )        (integer)
#  fmri_status_indication                   (integer)
#  image_type_ed_es  (end diast/end syst)   (integer)
#  pixel spacing (x,y) (in mm)              (2*float)
#  echo_time                                (float)
#  dyn_scan_begin_time                      (float)
#  trigger_time                             (float)
#  diffusion_b_factor                       (float)
#  number of averages                       (integer)
#  image_flip_angle (in degrees)            (float)
#  cardiac frequency   (bpm)                (integer)
#  minimum RR-interval (in ms)              (integer)
#  maximum RR-interval (in ms)              (integer)
#  TURBO factor  <0=no turbo>               (integer)
#  Inversion delay (in ms)                  (float)
#  diffusion b value number    (imagekey!)  (integer)
#  gradient orientation number (imagekey!)  (integer)
#  contrast type                            (string)
#  diffusion anisotropy type                (string)
#  diffusion (ap, fh, rl)                   (3*float)
#  label type (ASL)            (imagekey!)  (integer)
#
# === IMAGE INFORMATION ==========================================================
#  sl ec  dyn ph ty    idx pix scan% rec size                (re)scale              window        angulation              offcentre        thick   gap   info      spacing     echo     dtime   ttime    diff  avg  flip    freq   RR-int  turbo delay b grad cont anis         diffusion       L.ty

  1   1    1  1 0 2     0  16   100  512  512     0.00000   3.60904 6.48809e-003   476   940   1.04  -6.16  -0.00   -8.29  -35.61   -4.44  1.500  0.000 0 1 0 2  0.313  0.313   3.41    0.00     0.00    0.00   1   11.00     0    0    0   160 1100.0  1   1    7    0   0.000    0.000    0.000  1
  2   1    1  1 0 2     1  16   100  512  512     0.00000   3.60904 6.48809e-003   476   940   1.04  -6.16  -0.00   -8.29  -34.11   -4.41  1.500  0.000 0 1 0 2  0.313  0.313   3.41    0.00     0.00    0.00   1   11.00     0    0    0   160 1100.0  1   1    7    0   0.000    0.000    0.000  1
  3   1    1  1 0 2     2  16   100  512  512     0.00000   3.60904 6.48809e-003   476   940   1.04  -6.16  -0.00   -8.29  -32.61   -4.38  1.500  0.000 0 1 0 2  0.313  0.313   3.41    0.00     0.00    0.00   1   11.00     0    0    0   160 1100.0  1   1    7    0   0.000    0.000    0.000  1
  4   1    1  1 0 2     3  16   100  512  512     0.00000   3.60904 6.48809e-003   476   940   1.04  -6.16  -0.00   -8.29  -31.11   -4.36  1.500  0.000 0 1 0 2  0.313  0.313   3.41    0.00     0.00    0.00   1   11.00     0    0    0   160 1100.0  1   1    7    0   0.000    0.000    0.000  1
  5   1    1  1 0 2     4  16   100  512  512     0.00000   3.60904 6.48809e-003   476   940   1.04  -6.16  -0.00   -8.29  -29.61   -4.33  1.500  0.000 0 1 0 2  0.313  0.313   3.41    0.00     0.00    0.00   1   11.00     0    0    0   160 1100.0  1   1    7    0   0.000    0.000    0.000  1
  6   1    1  1 0 2     5  16   100  512  512     0.00000   3.60904 6.48809e-003   476   940   1.04  -6.16  -0.00   -8.29  -28.11   -4.30  1.500  0.000 0 1 0 2  0.313  0.313   3.41    0.00     0.00    0.00   1   11.00     0    0    0   160 1100.0  1   1    7    0   0.000    0.000    0.000  1
  7   1    1  1 0 2     6  16   100  512  512     0.00000   3.60904 6.48809e-003   476   940   1.04  -6.16  -0.00   -8.29  -26.61   -4.27  1.500  0.000 0 1 0 2  0.313  0.313   3.41    0.00     0.00    0.00   1   11.00     0    0    0   160 1100.0  1   1    7    0   0.000    0.000    0.000  1
  8   1    1  1 0 2     7  16   100  512  512     0.00000   3.60904 6.48809e-003   476   940   1.04  -6.16  -0.00   -8.29  -25.12   -4.25  1.500  0.000 0 1 0 2  0.313  0.313   3.41    0.00     0.00    0.00   1   11.00     0    0    0   160 1100.0  1   1    7    0   0.000    0.000    0.000  1
  9   1    1  1 0 2     8  16   100  512  512     0.00000   3.60904 6.48809e-003   476   940   1.04  -6.16  -0.00   -8.29  -23.62   -4.22  1.500  0.000 0 1 0 2  0.313  0.313   3.41    0.00     0.00    0.00   1   11.00     0    0    0   160 1100.0  1   1    7    0   0.000    0.000    0.000  1
 10   1    1  1 0 2     9  16   100  512  512     0.00000   3.60904 6.48809e-003   476   940   1.04  -6.16  -0.00   -8.29  -22.12   -4.19  1.500  0.000 0 1 0 2  0.313  0.313   3.41    0.00     0.00    0.00   1   11.00     0    0    0   160 1100.0  1   1    7    0   0.000    0.000    0.000  1
 11   1    1  1 0 2    10  16   100  512  512     0.00000   3.60904 6.48809e-003   476   940   1.04  -6.16  -0.00   -8.29  -20.62   -4.17  1.500  0.000 0 1 0 2  0.313  0.313   3.41    0.00     0.00    0.00   1   11.00     0    0    0   160 1100.0  1   1    7    0   0.000    0.000    0.000  1
 12   1    1  1 0 2    11  16   100  512  512     0.00000   3.60904 6.48809e-003   476   940   1.04  -6.16  -0.00   -8.29  -19.12   -4.14  1.500  0.000 0 1 0 2  0.313  0.313   3.41    0.00     0.00    0.00   1   11.00     0    0    0   160 1100.0  1   1    7    0   0.000    0.000    0.000  1
 13   1    1  1 0 2    12  16   100  512  512     0.00000   3.60904 6.48809e-003   476   940   1.04  -6.16  -0.00   -8.29  -17.62   -4.11  1.500  0.000 0 1 0 2  0.313  0.313   3.41    0.00     0.00    0.00   1   11.00     0    0    0   160 1100.0  1   1    7    0   0.000    0.000    0.000  1
 14   1    1  1 0 2    13  16   100  512  512     0.00000   3.60904 6.48809e-003   476   940   1.04  -6.16  -0.00   -8.29  -16.12   -4.08  1.500  0.000 0 1 0 2  0.313  0.313   3.41    0.00     0.00    0.00   1   11.00     0    0    0   160 1100.0  1   1    7    0   0.000    0.000    0.000  1
 15   1    1  1 0 2    14  16   100  512  512     0.00000   3.60904 6.48809e-003   476   940   1.04  -6.16  -0.00   -8.29  -14.62   -4.06  1.500  0.000 0 1 0 2  0.313  0.313   3.41    0.00     0.00    0.00   1   11.00     0    0    0   160 1100.0  1   1    7    0   0.000    0.000    0.000  1
 16   1    1  1 0 2    15  16   100  512  512     0.00000   3.60904 6.48809e-003   476   940   1.04  -6.16  -0.00   -8.29  -13.12   -4.03  1.500  0.000 0 1 0 2  0.313  0.313   3.41    0.00     0.00    0.00   1   11.00     0    0    0   160 1100.0  1   1    7    0   0.000    0.000    0.000  1
 17   1    1  1 0 2    16  16   100  512  512     0.00000   3.60904 6.48809e-003   476   940   1.04  -6.16  -0.00   -8.29  -11.62   -4.00  1.500  0.000 0 1 0 2  0.313  0.313   3.41    0.00     0.00    0.00   1   11.00     0    0    0   160 1100.0  1   1    7    0   0.000    0.000    0.000  1
 18   1    1  1 0 2    17  16   100  512  512     0.00000   3.60904 6.48809e-003   476   940   1.04  -6.16  -0.00   -8.29  -10.12   -3.98  1.500  0.000 0 1 0 2  0.313  0.313   3.41    0.00     0.00    0.00   1   11.00     0    0    0   160 1100.0  1   1    7    0   0.000    0.000    0.000  1
 19   1    1  1 0 2    18  16   100  512  512     0.00000   3.60904 6.48809e-003   476   940   1.04  -6.16  -0.00   -8.29   -8.62   -3.95  1.500  0.000 0 1 0 2  0.313  0.313   3.41    0.00     0.00    0.00   1   11.00     0    0    0   160 1100.0  1   1    7    0   0.000    0.000    0.000  1
 20   1    1  1 0 2    19  16   100  512  512     0.00000   3.60904 6.48809e-003   476   940   1.04  -6.16  -0.00   -8.29   -7.12   -3.92  1.500  0.000 0 1 0 2  0.313  0.313   3.41    0.00     0.00    0.00   1   11.00     0    0    0   160 1100.0  1   1    7    0   0.000    0.000    0.000  1
 21   1    1  1 0 2    20  16   100  512  512     0.00000   3.60904 6.48809e-003   476   940   1.04  -6.16  -0.00   -8.29   -5.62   -3.89  1.500  0.000 0 1 0 2  0.313  0.313   3.41    0.00     0.00    0.00   1   11.00     0    0    0   160 1100.0  1   1    7    0   0.000    0.000    0.000  1
 22   1    1  1 0 2    21  16   100  512  512     0.00000   3.60904 6.48809e-003   476   940   1.04  -6.16  -0.00   -8.29   -4.12   -3.87  1.500  0.000 0 1 0 2  0.313  0.313   3.41    0.00     0.00    0.00   1   11.00     0    0    0   160 1100.0  1   1    7    0   0.000    0.000    0.000  1
 23   1    1  1 0 2    22  16   100  512  512     0.00000   3.60904 6.48809e-003   476   940   1.04  -6.16  -0.00   -8.29   -2.62   -3.84  1.500  0.000 0 1 0 2  0.313  0.313   3.41    0.00     0.00    0.00   1   11.00     0    0    0   160 1100.0  1   1    7    0   0.000    0.000    0.000  1
 24   1    1  1 0 2    23  16   100  512  512     0.00000   3.60904 6.48809e-003   476   940   1.04  -6.16  -0.00   -8.29   -1.12   -3.81  1.500  0.000 0 1 0 2  0.313  0.313   3.41    0.00     0.00    0.00   1   11.00     0    0    0   160 1100.0  1   1    7    0   0.000    0.000    0.000  1
 25   1    1  1 0 2    24  16   100  512  512     0.00000   3.60904 6.48809e-003   476   940   1.04  -6.16  -0.00   -8.29    0.38   -3.79  1.500  0.000 0 1 0 2  0.313  0.313   3.41    0.00     0.00    0.00   1   11.00     0    0    0   160 1100.0  1   1    7    0   0.000    0.000    0.000  1
 26   1    1  1 0 2    25  16   100  512  512     0.00000   3.60904 6.48809e-003   476   940   1.04  -6.16  -0.00   -8.29    1.88   -3.76  1.500  0.000 0 1 0 2  0.313  0.313   3.41    0.00     0.00    0.00   1   11.00     0    0    0   160 1100.0  1   1    7    0   0.000    0.000    0.000  1
 27   1    1  1 0 2    26  16   100  512  512     0.00000   3.60904 6.48809e-003   476   940   1.04  -6.16  -0.00   -8.29    3.38   -3.73  1.500  0.000 0 1 0 2  0.313  0.313   3.41    0.00     0.00    0.00   1   11.00     0    0    0   160 1100.0  1   1    7    0   0.000    0.000    0.000  1
 28   1    1  1 0 2    27  16   100  512  512     0.00000   3.60904 6.48809e-003   476   940   1.04  -6.16  -0.00   -8.29    4.88   -3.70  1.500  0.000 0 1 0 2  0.313  0.313   3.41    0.00     0.00    0.00   1   11.00     0    0    0   160 1100.0  1   1    7    0   0.000    0.000    0.000  1
 29   1    1  1 0 2    28  16   100  512  512     0.00000   3.60904 6.48809e-003   476   940   1.04  -6.16  -0.00   -8.29    6.38   -3.68  1.500  0.000 0 1 0 2  0.313  0.313   3.41    0.00     0.00    0.00   1   11.00     0    0    0   160 1100.0  1   1    7    0   0.000    0.000    0.000  1
 30   1    1  1 0 2    29  16   100  512  512     0.00000   3.60904 6.48809e-003   476   940   1.04  -6.16  -0.00   -8.29    7.88   -3.65  1.500  0.000 0 1 0 2  0.313  0.313   3.41    0.00     0.00    0.00   1   11.00     0    0    0   160 1100.0  1   1    7    0   0.000    0.000    0.000  1
 31   1    1  1 0 2    30  16   100  512  512     0.00000   3.60904 6.48809e-003   476   940   1.04  -6.16  -0.00   -8.29    9.38   -3.62  1.500  0.000 0 1 0 2  0.313  0.313   3.41    0.00     0.00    0.00   1   11.00     0    0    0   160 1100.0  1   1    7    0   0.000    0.000    0.000  1
 32   1    1  1 0 2    31  16   100  512  512     0.00000   3.60904 6.48809e-003   476   940   1.04  -6.16  -0.00   -8.29   10.88   -3.60  1.500  0.000 0 1 0 2  0.313  0.313   3.41    0.00     0.00    0.00   1   11.00     0    0    0   160 1100.0  1   1    7    0   0.000    0.000    0.000  1
 33   1    1  1 0 2    32  16   100  512  512     0.00000   3.60904 6.48809e-003   476   940   1.04  -6.16  -0.00   -8.29   12.38   -3.57  1.500  0.000 0 1 0 2  0.313  0.313   3.41    0.00     0.00    0.00   1   11.00     0    0    0   160 1100.0  1   1    7    0   0.000    0.000    0.000  1
 34   1    1  1 0 2    33  16   100  512  512     0.00000   3.60904 6.48809e-003   476   940   1.04  -6.16  -0.00   -8.29   13.88   -3.54  1.500  0.000 0 1 0 2  0.313  0.313   3.41    0.00     0.00    0.00   1   11.00     0    0    0   160 1100.0  1   1    7    0   0.000    0.000    0.000  1
 35   1    1  1 0 2    34  16   100  512  512     0.00000   3.60904 6.48809e-003   476   940   1.04  -6.16  -0.00   -8.29   15.38   -3.51  1.500  0.000 0 1 0 2  0.313  0.313   3.41    0.00     0.00    0.00   1   11.00     0    0    0   160 1100.0  1   1    7    0   0.000    0.000    0.000  1
 36   1    1  1 0 2    35  16   100  512  512     0.00000   3.60904 6.48809e-003   476   940   1.04  -6.16  -0.00   -8.29   16.88   -3.49  1.500  0.000 0 1 0 2  0.313  0.313   3.41    0.00     0.00    0.00   1   11.00     0    0    0   160 1100.0  1   1    7    0   0.000    0.000    0.000  1
 37   1    1  1 0 2    36  16   100  512  512     0.00000   3.60904 6.48809e-003   476   940   1.04  -6.16  -0.00   -8.29   18.38   -3.46  1.500  0.000 0 1 0 2  0.313  0.313   3.41    0.00     0.00    0.00   1   11.00     0    0    0   160 1100.0  1   1    7    0   0.000    0.000    0.000  1
 38   1    1  1 0 2    37  16   100  512  512     0.00000   3.60904 6.48809e-003   476   940   1.04  -6.16  -0.00   -8.29   19.88   -3.43  1.500  0.000 0 1 0 2  0.313  0.313   3.41    0.00     0.00    0.00   1   11.00     0    0    0   160 1100.0  1   1    7    0   0.000    0.000    0.000  1
 39   1    1  1 0 2    38  16   100  512  512     0.00000   3.60904 6.48809e-003   476   940   1.04  -6.16  -0.00   -8.29   21.38   -3.41  1.500  0.000 0 1 0 2  0.313  0.313   3.41    0.00     0.00    0.00   1   11.00     0    0    0   160 1100.0  1   1    7    0   0.000    0.000    0.000  1
 40   1    1  1 0 2    39  16   100  512  512     0.00000   3.60904 6.48809e-003   476   940   1.04  -6.16  -0.00   -8.29   22.88   -3.38  1.500  0.000 0 1 0 2  0.313  0.313   3.41    0.00     0.00    0.00   1   11.00     0    0    0   160 1100.0  1   1    7    0   0.000    0.000    0.000  1
 41   1    1  1 0 2    40  16   100  512  512     0.00000   3.60904 6.48809e-003   476   940   1.04  -6.16  -0.00   -8.29   24.38   -3.35  1.500  0.000 0 1 0 2  0.313  0.313   3.41    0.00     0.00    0.00   1   11.00     0    0    0   160 1100.0  1   1    7    0   0.000    0.000    0.000  1
 42   1    1  1 0 2    41  16   100  512  512     0.00000   3.60904 6.48809e-003   476   940   1.04  -6.16  -0.00   -8.29   25.88   -3.32  1.500  0.000 0 1 0 2  0.313  0.313   3.41    0.00     0.00    0.00   1   11.00     0    0    0   160 1100.0  1   1    7    0   0.000    0.000    0.000  1
 43   1    1  1 0 2    42  16   100  512  512     0.00000   3.60904 6.48809e-003   476   940   1.04  -6.16  -0.00   -8.29   27.38   -3.30  1.500  0.000 0 1 0 2  0.313  0.313   3.41    0.00     0.00    0.00   1   11.00     0    0    0   160 1100.0  1   1    7    0   0.000    0.000    0.000  1
 44   1    1  1 0 2    43  16   100  512  512     0.00000   3.60904 6.48809e-003   476   940   1.04  -6.16  -0.00   -8.29   28.88   -3.27  1.500  0.000 0 1 0 2  0.313  0.313   3.41    0.00     0.00    0.00   1   11.00     0    0    0   160 1100.0  1   1    7    0   0.000    0.000    0.000  1
 45   1    1  1 0 2    44  16   100  512  512     0.00000   3.60904 6.48809e-003   476   940   1.04  -6.16  -0.00   -8.29   30.38   -3.24  1.500  0.000 0 1 0 2  0.313  0.313   3.41    0.00     0.00    0.00   1   11.00     0    0    0   160 1100.0  1   1    7    0   0.000    0.000    0.000  1
 46   1    1  1 0 2    45  16   100  512  512     0.00000   3.60904 6.48809e-003   476   940   1.04  -6.16  -0.00   -8.29   31.88   -3.22  1.500  0.000 0 1 0 2  0.313  0.313   3.41    0.00     0.00    0.00   1   11.00     0    0    0   160 1100.0  1   1    7    0   0.000    0.000    0.000  1
 47   1    1  1 0 2    46  16   100  512  512     0.00000   3.60904 6.48809e-003   476   940   1.04  -6.16  -0.00   -8.29   33.38   -3.19  1.500  0.000 0 1 0 2  0.313  0.313   3.41    0.00     0.00    0.00   1   11.00     0    0    0   160 1100.0  1   1    7    0   0.000    0.000    0.000  1
 48   1    1  1 0 2    47  16   100  512  512     0.00000   3.60904 6.48809e-003   476   940   1.04  -6.16  -0.00   -8.29   34.88   -3.16  1.500  0.000 0 1 0 2  0.313  0.313   3.41    0.00     0.00    0.00   1   11.00     0    0    0   160 1100.0  1   1    7    0   0.000    0.000    0.000  1
 49   1    1  1 0 2    48  16   100  512  512     0.00000   3.60904 6.48809e-003   476   940   1.04  -6.16  -0.00   -8.29   36.37   -3.13  1.500  0.000 0 1 0 2  0.313  0.313   3.41    0.00     0.00    0.00   1   11.00     0    0    0   160 1100.0  1   1    7    0   0.000    0.000    0.000  1
 50   1    1  1 0 2    49  16   100  512  512     0.00000   3.60904 6.48809e-003   476   940   1.04  -6.16  -0.00   -8.29   37.87   -3.11  1.500  0.000 0 1 0 2  0.313  0.313   3.41    0.00     0.00    0.00   1   11.00     0    0    0   160 1100.0  1   1    7    0   0.000    0.000    0.000  1
 51   1    1  1 0 2    50  16   100  512  512     0.00000   3.60904 6.48809e-003   476   940   1.04  -6.16  -0.00   -8.29   39.37   -3.08  1.500  0.000 0 1 0 2  0.313  0.313   3.41    0.00     0.00    0.00   1   11.00     0    0    0   160 1100.0  1   1    7    0   0.000    0.000    0.000  1
 52   1    1  1 0 2    51  16   100  512  512     0.00000   3.60904 6.48809e-003   476   940   1.04  -6.16  -0.00   -8.29   40.87   -3.05  1.500  0.000 0 1 0 2  0.313  0.313   3.41    0.00     0.00    0.00   1   11.00     0    0    0   160 1100.0  1   1    7    0   0.000    0.000    0.000  1
 53   1    1  1 0 2    52  16   100  512  512     0.00000   3.60904 6.48809e-003   476   940   1.04  -6.16  -0.00   -8.29   42.37   -3.03  1.500  0.000 0 1 0 2  0.313  0.313   3.41    0.00     0.00    0.00   1   11.00     0    0    0   160 1100.0  1   1    7    0   0.000    0.000    0.000  1
 54   1    1  1 0 2    53  16   100  512  512     0.00000   3.60904 6.48809e-003   476   940   1.04  -6.16  -0.00   -8.29   43.87   -3.00  1.500  0.000 0 1 0 2  0.313  0.313   3.41    0.00     0.00    0.00   1   11.00     0    0    0   160 1100.0  1   1    7    0   0.000    0.000    0.000  1
 55   1    1  1 0 2    54  16   100  512  512     0.00000   3.60904 6.48809e-003   476   940   1.04  -6.16  -0.00   -8.29   45.37   -2.97  1.500  0.000 0 1 0 2  0.313  0.313   3.41    0.00     0.00    0.00   1   11.00     0    0    0   160 1100.0  1   1    7    0   0.000    0.000    0.000  1
 56   1    1  1 0 2    55  16   100  512  512     0.00000   3.60904 6.48809e-003   476   940   1.04  -6.16  -0.00   -8.29   46.87   -2.94  1.500  0.000 0 1 0 2  0.313  0.313   3.41    0.00     0.00    0.00   1   11.00     0    0    0   160 1100.0  1   1    7    0   0.000    0.000    0.000  1
 57   1    1  1 0 2    56  16   100  512  512     0.00000   3.60904 6.48809e-003   476   940   1.04  -6.16  -0.00   -8.29   48.37   -2.92  1.500  0.000 0 1 0 2  0.313  0.313   3.41    0.00     0.00    0.00   1   11.00     0    0    0   160 1100.0  1   1    7    0   0.000    0.000    0.000  1
 58   1    1  1 0 2    57  16   100  512  512     0.00000   3.60904 6.48809e-003   476   940   1.04  -6.16  -0.00   -8.29   49.87   -2.89  1.500  0.000 0 1 0 2  0.313  0.313   3.41    0.00     0.00    0.00   1   11.00     0    0    0   160 1100.0  1   1    7    0   0.000    0.000    0.000  1
 59   1    1  1 0 2    58  16   100  512  512     0.00000   3.60904 6.48809e-003   476   940   1.04  -6.16  -0.00   -8.29   51.37   -2.86  1.500  0.000 0 1 0 2  0.313  0.313   3.41    0.00     0.00    0.00   1   11.00     0    0    0   160 1100.0  1   1    7    0   0.000    0.000    0.000  1
 60   1    1  1 0 2    59  16   100  512  512     0.00000   3.60904 6.48809e-003   476   940   1.04  -6.16  -0.00   -8.29   52.87   -2.84  1.500  0.000 0 1 0 2  0.313  0.313   3.41    0.00     0.00    0.00   1   11.00     0    0    0   160 1100.0  1   1    7    0   0.000    0.000    0.000  1
 61   1    1  1 0 2    60  16   100  512  512     0.00000   3.60904 6.48809e-003   476   940   1.04  -6.16  -0.00   -8.29   54.37   -2.81  1.500  0.000 0 1 0 2  0.313  0.313   3.41    0.00     0.00    0.00   1   11.00     0    0    0   160 1100.0  1   1    7    0   0.000    0.000    0.000  1
 62   1    1  1 0 2    61  16   100  512  512     0.00000   3.60904 6.48809e-003   476   940   1.04  -6.16  -0.00   -8.29   55.87   -2.78  1.500  0.000 0 1 0 2  0.313  0.313   3.41    0.00     0.00    0.00   1   11.00     0    0    0   160 1100.0  1   1    7    0   0.000    0.000    0.000  1
 63   1    1  1 0 2    62  16   100  512  512     0.00000   3.60904 6.48809e-003   476   940   1.04  -6.16  -0.00   -8.29   57.37   -2.75  1.500  0.000 0 1 0 2  0.313  0.313   3.41    0.00     0.00    0.00   1   11.00     0    0    0   160 1100.0  1   1    7    0   0.000    0.000    0.000  1
 64   1    1  1 0 2    63  16   100  512  512     0.00000   3.60904 6.48809e-003   476   940   1.04  -6.16  -0.00   -8.29   58.87   -2.73  1.500  0.000 0 1 0 2  0.313  0.313   3.41    0.00     0.00    0.00   1   11.00     0    0    0   160 1100.0  1   1    7    0   0.000    0.000    0.000  1
 65   1    1  1 0 2    64  16   100  512  512     0.00000   3.60904 6.48809e-003   476   940   1.04  -6.16  -0.00   -8.29   60.37   -2.70  1.500  0.000 0 1 0 2  0.313  0.313   3.41    0.00     0.00    0.00   1   11.00     0    0    0   160 1100.0  1   1    7    0   0.000    0.000    0.000  1
 66   1    1  1 0 2    65  16   100  512  512     0.00000   3.60904 6.48809e-003   476   940   1.04  -6.16  -0.00   -8.29   61.87   -2.67  1.500  0.000 0 1 0 2  0.313  0.313   3.41    0.00     0.00    0.00   1   11.00     0    0    0   160 1100.0  1   1    7    0   0.000    0.000    0.000  1
 67   1    1  1 0 2    66  16   100  512  512     0.00000   3.60904 6.48809e-003   476   940   1.04  -6.16  -0.00   -8.29   63.37   -2.65  1.500  0.000 0 1 0 2  0.313  0.313   3.41    0.00     0.00    0.00   1   11.00     0    0    0   160 1100.0  1   1    7    0   0.000    0.000    0.000  1
 68   1    1  1 0 2    67  16   100  512  512     0.00000   3.60904 6.48809e-003   476   940   1.04  -6.16  -0.00   -8.29   64.87   -2.62  1.500  0.000 0 1 0 2  0.313  0.313   3.41    0.00     0.00    0.00   1   11.00     0    0    0   160 1100.0  1   1    7    0   0.000    0.000    0.000  1
 69   1    1  1 0 2    68  16   100  512  512     0.00000   3.60904 6.48809e-003   476   940   1.04  -6.16  -0.00   -8.29   66.37   -2.59  1.500  0.000 0 1 0 2  0.313  0.313   3.41    0.00     0.00    0.00   1   11.00     0    0    0   160 1100.0  1   1    7    0   0.000    0.000    0.000  1
 70   1    1  1 0 2    69  16   100  512  512     0.00000   3.60904 6.48809e-003   476   940   1.04  -6.16  -0.00   -8.29   67.87   -2.56  1.500  0.000 0 1 0 2  0.313  0.313   3.41    0.00     0.00    0.00   1   11.00     0    0    0   160 1100.0  1   1    7    0   0.000    0.000    0.000  1

# === END OF DATA DESCRIPTION FILE ===============================================
